Date,Low,Open,Volume,High,Close,Adjusted Close
04-10-1989,2.4375,2.46875,20636000,2.546875,2.5,1.9924113750457764
05-10-1989,2.5,2.515625,6453600,2.625,2.578125,2.054672956466675
06-10-1989,2.546875,2.59375,2755200,2.625,2.546875,2.0297701358795166
09-10-1989,2.5,2.546875,1084000,2.546875,2.546875,2.0297701358795166
10-10-1989,2.5,2.5625,1493600,2.5625,2.53125,2.0173163414001465
11-10-1989,2.46875,2.5,1260000,2.515625,2.515625,2.0048649311065674
12-10-1989,2.515625,2.515625,602400,2.546875,2.53125,2.0173163414001465
13-10-1989,2.46875,2.53125,3970400,2.53125,2.484375,1.9799590110778809
16-10-1989,2.375,2.375,3924800,2.46875,2.46875,1.9675073623657227
17-10-1989,2.4375,2.4375,1843200,2.5,2.5,1.9924113750457764
18-10-1989,2.484375,2.5,1128000,2.5625,2.546875,2.0297701358795166
19-10-1989,2.53125,2.53125,1040000,2.546875,2.546875,2.0297701358795166
20-10-1989,2.515625,2.53125,237600,2.53125,2.53125,2.0173163414001465
23-10-1989,2.546875,2.546875,87200,2.5625,2.546875,2.0297701358795166
24-10-1989,2.53125,2.546875,689600,2.5625,2.5625,2.042222023010254
25-10-1989,2.515625,2.546875,608000,2.578125,2.546875,2.0297701358795166
26-10-1989,2.546875,2.546875,228800,2.5625,2.546875,2.0297701358795166
27-10-1989,2.5,2.546875,456000,2.546875,2.515625,2.0048649311065674
30-10-1989,2.5,2.515625,250400,2.515625,2.5,1.9924113750457764
31-10-1989,2.5,2.5,424800,2.515625,2.5,1.9924113750457764
01-11-1989,2.515625,2.515625,715200,2.5625,2.5625,2.042222023010254
02-11-1989,2.59375,2.59375,130400,2.640625,2.640625,2.104485511779785
03-11-1989,2.625,2.625,1118400,2.75,2.734375,2.1791999340057373
06-11-1989,2.578125,2.71875,264800,2.71875,2.578125,2.054672956466675
07-11-1989,2.5,2.546875,727200,2.6875,2.6875,2.14184308052063
08-11-1989,2.671875,2.6875,236800,2.71875,2.71875,2.166748285293579
09-11-1989,2.6875,2.71875,60800,2.71875,2.6875,2.14184308052063
10-11-1989,2.546875,2.6875,210400,2.6875,2.5625,2.042222023010254
13-11-1989,2.515625,2.5625,92800,2.5625,2.546875,2.0297701358795166
14-11-1989,2.484375,2.578125,428000,2.578125,2.53125,2.0173163414001465
15-11-1989,2.53125,2.546875,176000,2.578125,2.5625,2.042222023010254
16-11-1989,2.546875,2.546875,301600,2.59375,2.59375,2.067126512527466
17-11-1989,2.59375,2.59375,249600,2.640625,2.640625,2.104485511779785
20-11-1989,2.609375,2.65625,43200,2.65625,2.609375,2.079580783843994
21-11-1989,2.59375,2.59375,108800,2.671875,2.671875,2.129389524459839
22-11-1989,2.6875,2.6875,255200,2.75,2.75,2.1916534900665283
24-11-1989,2.78125,2.78125,572000,2.953125,2.921875,2.328632354736328
27-11-1989,2.859375,2.90625,253600,2.9375,2.875,2.291273832321167
28-11-1989,2.828125,2.875,560000,2.875,2.828125,2.253915786743164
29-11-1989,2.78125,2.8125,60800,2.8125,2.796875,2.229011058807373
30-11-1989,2.8125,2.8125,712800,2.90625,2.890625,2.303725242614746
01-12-1989,2.890625,2.890625,356800,2.953125,2.90625,2.3161795139312744
04-12-1989,2.875,2.9375,172000,2.984375,2.984375,2.3784422874450684
05-12-1989,2.90625,2.953125,93600,2.984375,2.90625,2.3161795139312744
06-12-1989,2.90625,2.90625,668800,3.0,2.984375,2.3784422874450684
07-12-1989,2.921875,2.984375,215200,2.984375,2.953125,2.353536367416382
08-12-1989,2.921875,2.921875,122400,2.953125,2.953125,2.353536367416382
11-12-1989,2.9375,2.96875,306400,3.03125,3.0,2.3908936977386475
12-12-1989,2.984375,3.015625,1119200,3.03125,3.015625,2.403345823287964
13-12-1989,2.984375,3.0,400000,3.15625,3.15625,2.5154199600219727
14-12-1989,3.109375,3.125,391200,3.140625,3.125,2.4905154705047607
15-12-1989,3.09375,3.140625,155200,3.140625,3.109375,2.478062868118286
18-12-1989,3.03125,3.078125,224000,3.125,3.03125,2.415800094604492
19-12-1989,3.03125,3.03125,215200,3.0625,3.0625,2.4407052993774414
20-12-1989,3.046875,3.0625,166400,3.109375,3.078125,2.4531571865081787
21-12-1989,3.0625,3.109375,174400,3.125,3.109375,2.478062868118286
22-12-1989,3.109375,3.125,173600,3.125,3.125,2.4905154705047607
26-12-1989,3.078125,3.109375,97600,3.109375,3.078125,2.4531571865081787
27-12-1989,3.03125,3.0625,144000,3.0625,3.03125,2.415800094604492
28-12-1989,3.03125,3.046875,11200,3.046875,3.03125,2.415800094604492
29-12-1989,3.015625,3.03125,219200,3.15625,3.15625,2.5154199600219727
02-01-1990,3.03125,3.125,194400,3.125,3.046875,2.4282522201538086
03-01-1990,3.03125,3.0625,361600,3.0625,3.03125,2.415800094604492
04-01-1990,2.953125,3.03125,166400,3.0625,2.953125,2.353536367416382
05-01-1990,2.859375,2.9375,100800,2.9375,2.90625,2.3161795139312744
08-01-1990,2.84375,2.875,880800,2.890625,2.859375,2.278820753097534
09-01-1990,2.8125,2.828125,282400,2.84375,2.8125,2.241464614868164
10-01-1990,2.6875,2.765625,784000,2.765625,2.703125,2.159093141555786
11-01-1990,2.703125,2.71875,347200,2.765625,2.75,2.196535348892212
12-01-1990,2.6875,2.71875,159200,2.734375,2.71875,2.171574115753174
15-01-1990,2.71875,2.734375,25600,2.734375,2.71875,2.171574115753174
16-01-1990,2.625,2.6875,172800,2.703125,2.703125,2.159093141555786
17-01-1990,2.71875,2.71875,216000,2.8125,2.71875,2.171574115753174
18-01-1990,2.6875,2.6875,157600,2.71875,2.703125,2.159093141555786
19-01-1990,2.734375,2.734375,8800,2.75,2.75,2.196535348892212
22-01-1990,2.71875,2.734375,56800,2.75,2.734375,2.184053897857666
23-01-1990,2.734375,2.765625,101600,2.765625,2.75,2.196535348892212
24-01-1990,2.6875,2.734375,26400,2.734375,2.6875,2.146613121032715
25-01-1990,2.671875,2.6875,249600,2.71875,2.71875,2.171574115753174
26-01-1990,2.671875,2.703125,45600,2.71875,2.671875,2.13413143157959
29-01-1990,2.625,2.6875,444000,2.6875,2.640625,2.1091725826263428
30-01-1990,2.578125,2.625,548000,2.65625,2.65625,2.1216530799865723
31-01-1990,2.6875,2.6875,757600,2.859375,2.859375,2.2838964462280273
01-02-1990,2.84375,2.875,149600,2.875,2.859375,2.2838964462280273
02-02-1990,2.875,2.875,720000,2.90625,2.875,2.296377182006836
05-02-1990,2.875,2.90625,163200,2.90625,2.875,2.296377182006836
06-02-1990,2.84375,2.875,99200,2.90625,2.890625,2.30885648727417
07-02-1990,2.90625,2.90625,32800,2.9375,2.9375,2.3462986946105957
08-02-1990,2.96875,2.96875,346400,3.125,3.046875,2.4336607456207275
09-02-1990,2.96875,3.078125,179200,3.125,3.0,2.396219491958618
12-02-1990,2.90625,3.0,28000,3.0,2.90625,2.3213388919830322
13-02-1990,2.9375,2.9375,26400,2.953125,2.953125,2.358778715133667
14-02-1990,2.9375,2.953125,32800,2.96875,2.9375,2.3462986946105957
15-02-1990,2.953125,2.953125,152000,2.96875,2.953125,2.358778715133667
16-02-1990,2.96875,2.96875,32000,2.96875,2.96875,2.371258497238159
20-02-1990,2.953125,2.984375,23200,2.984375,2.953125,2.358778715133667
21-02-1990,2.90625,2.953125,553600,2.953125,2.90625,2.3213388919830322
22-02-1990,2.84375,2.90625,148000,2.90625,2.84375,2.2714157104492188
23-02-1990,2.6875,2.78125,575200,2.78125,2.71875,2.171574115753174
26-02-1990,2.734375,2.734375,477600,2.75,2.75,2.196535348892212
27-02-1990,2.765625,2.765625,357600,2.84375,2.84375,2.2714157104492188
28-02-1990,2.796875,2.8125,145600,2.828125,2.796875,2.2339749336242676
01-03-1990,2.75,2.796875,225600,2.796875,2.75,2.196535348892212
02-03-1990,2.6875,2.75,931200,2.78125,2.703125,2.159093141555786
05-03-1990,2.65625,2.671875,146400,2.703125,2.671875,2.13413143157959
06-03-1990,2.625,2.671875,258400,2.734375,2.734375,2.184053897857666
07-03-1990,2.703125,2.734375,174400,2.75,2.75,2.196535348892212
08-03-1990,2.734375,2.75,146400,2.796875,2.78125,2.2214956283569336
09-03-1990,2.734375,2.75,194400,2.78125,2.734375,2.184053897857666
12-03-1990,2.625,2.703125,1072800,2.71875,2.6875,2.146613121032715
13-03-1990,2.671875,2.671875,662400,2.6875,2.6875,2.146613121032715
14-03-1990,2.671875,2.671875,298400,2.765625,2.765625,2.2090139389038086
15-03-1990,2.71875,2.78125,192000,2.796875,2.71875,2.171574115753174
16-03-1990,2.734375,2.75,271200,2.78125,2.78125,2.2214956283569336
19-03-1990,2.75,2.75,476000,2.765625,2.765625,2.2090139389038086
20-03-1990,2.75,2.75,898400,2.90625,2.796875,2.2339749336242676
21-03-1990,2.796875,2.796875,102400,2.8125,2.796875,2.2339749336242676
22-03-1990,2.75,2.75,177600,2.765625,2.765625,2.2090139389038086
23-03-1990,2.796875,2.796875,320000,2.796875,2.796875,2.2339749336242676
26-03-1990,2.75,2.78125,37600,2.78125,2.75,2.196535348892212
27-03-1990,2.734375,2.734375,24000,2.75,2.75,2.196535348892212
28-03-1990,2.84375,2.84375,706400,2.9375,2.921875,2.3338186740875244
29-03-1990,2.890625,2.921875,361600,2.9375,2.90625,2.3213388919830322
30-03-1990,2.921875,2.921875,161600,2.921875,2.921875,2.3338186740875244
02-04-1990,2.84375,2.921875,184800,2.921875,2.875,2.296377182006836
03-04-1990,2.875,2.875,358400,3.03125,2.984375,2.3837387561798096
04-04-1990,2.90625,2.984375,364800,2.984375,2.90625,2.3213388919830322
05-04-1990,2.90625,2.9375,373600,2.953125,2.90625,2.3213388919830322
06-04-1990,2.78125,2.921875,810400,2.921875,2.78125,2.2214956283569336
09-04-1990,2.734375,2.734375,336800,2.765625,2.734375,2.1889734268188477
10-04-1990,2.71875,2.75,426400,2.8125,2.765625,2.213989019393921
11-04-1990,2.71875,2.78125,234400,2.8125,2.734375,2.1889734268188477
12-04-1990,2.59375,2.71875,456000,2.734375,2.625,2.1014151573181152
16-04-1990,2.640625,2.640625,273600,2.734375,2.703125,2.1639561653137207
17-04-1990,2.703125,2.71875,16800,2.71875,2.71875,2.1764650344848633
18-04-1990,2.6875,2.6875,333600,2.75,2.71875,2.1764650344848633
19-04-1990,2.671875,2.71875,207200,2.71875,2.6875,2.1514477729797363
20-04-1990,2.65625,2.671875,168800,2.6875,2.671875,2.138939142227173
23-04-1990,2.625,2.65625,173600,2.65625,2.625,2.1014151573181152
24-04-1990,2.625,2.625,458400,2.671875,2.625,2.1014151573181152
25-04-1990,2.640625,2.65625,104000,2.671875,2.65625,2.126431465148926
26-04-1990,2.625,2.625,461600,2.6875,2.6875,2.1514477729797363
27-04-1990,2.6875,2.6875,133600,2.703125,2.703125,2.1639561653137207
30-04-1990,2.6875,2.703125,68800,2.71875,2.71875,2.1764650344848633
01-05-1990,2.6875,2.71875,732800,2.828125,2.8125,2.2515170574188232
02-05-1990,2.765625,2.78125,575200,2.828125,2.8125,2.2515170574188232
03-05-1990,2.828125,2.84375,105600,2.859375,2.828125,2.264023542404175
04-05-1990,2.78125,2.84375,279200,2.84375,2.78125,2.22649884223938
07-05-1990,2.78125,2.78125,32800,2.84375,2.84375,2.2765309810638428
08-05-1990,2.828125,2.84375,48800,2.84375,2.828125,2.264023542404175
09-05-1990,2.796875,2.84375,1232800,2.859375,2.796875,2.2390060424804688
10-05-1990,2.796875,2.8125,428000,2.84375,2.796875,2.2390060424804688
11-05-1990,2.828125,2.828125,172000,2.875,2.875,2.301548957824707
14-05-1990,2.75,2.890625,2418400,2.890625,2.75,2.201482057571411
15-05-1990,2.75,2.78125,5804800,2.828125,2.8125,2.2515170574188232
16-05-1990,2.8125,2.8125,367200,2.96875,2.90625,2.326566696166992
17-05-1990,2.921875,2.921875,196000,2.953125,2.953125,2.364091396331787
18-05-1990,2.96875,2.96875,181600,3.0,3.0,2.401615619659424
21-05-1990,2.921875,2.96875,74400,2.96875,2.953125,2.364091396331787
22-05-1990,2.96875,2.984375,40800,2.984375,2.96875,2.3765995502471924
23-05-1990,2.90625,2.96875,30400,2.96875,2.90625,2.326566696166992
24-05-1990,2.75,2.921875,483200,2.921875,2.8125,2.2515170574188232
25-05-1990,2.75,2.8125,817600,2.875,2.875,2.301548957824707
29-05-1990,2.890625,2.890625,60800,2.90625,2.90625,2.326566696166992
30-05-1990,2.921875,2.9375,129600,2.984375,2.96875,2.3765995502471924
31-05-1990,2.90625,2.9375,143200,2.984375,2.96875,2.3765995502471924
01-06-1990,2.953125,2.96875,47200,2.984375,2.96875,2.3765995502471924
04-06-1990,2.90625,2.9375,68000,2.984375,2.984375,2.3891079425811768
05-06-1990,2.796875,2.984375,1125600,3.0,2.890625,2.314056634902954
06-06-1990,2.875,2.890625,44000,2.90625,2.875,2.301548957824707
07-06-1990,2.859375,2.890625,212800,2.890625,2.859375,2.2890400886535645
08-06-1990,2.8125,2.875,405600,2.875,2.84375,2.2765309810638428
11-06-1990,2.84375,2.859375,48800,2.890625,2.875,2.301548957824707
12-06-1990,2.859375,2.90625,196000,3.0,2.984375,2.3891079425811768
13-06-1990,2.96875,2.96875,208000,3.09375,2.96875,2.3765995502471924
14-06-1990,2.9375,2.953125,20800,2.984375,2.984375,2.3891079425811768
15-06-1990,2.921875,2.984375,158400,2.984375,2.96875,2.3765995502471924
18-06-1990,2.96875,2.96875,1600,2.96875,2.96875,2.3765995502471924
19-06-1990,2.875,2.9375,174400,2.9375,2.921875,2.3390748500823975
20-06-1990,2.90625,2.953125,127200,2.953125,2.9375,2.35158371925354
21-06-1990,2.921875,2.921875,6400,2.9375,2.9375,2.35158371925354
22-06-1990,2.921875,2.9375,356800,2.953125,2.953125,2.364091396331787
25-06-1990,2.90625,2.921875,24800,2.9375,2.921875,2.3390748500823975
26-06-1990,2.859375,2.90625,207200,2.921875,2.921875,2.3390748500823975
27-06-1990,2.921875,2.921875,13600,2.9375,2.921875,2.3390748500823975
28-06-1990,2.9375,2.9375,157600,2.96875,2.96875,2.3765995502471924
29-06-1990,2.953125,2.984375,327200,2.984375,2.96875,2.3765995502471924
02-07-1990,2.875,2.953125,322400,2.953125,2.90625,2.326566696166992
03-07-1990,2.875,2.9375,308800,2.9375,2.875,2.301548957824707
05-07-1990,2.8125,2.84375,596800,2.84375,2.828125,2.264023542404175
06-07-1990,2.78125,2.78125,82400,2.796875,2.796875,2.2390060424804688
09-07-1990,2.75,2.796875,724800,2.8125,2.78125,2.22649884223938
10-07-1990,2.765625,2.78125,1073600,2.78125,2.78125,2.2315125465393066
11-07-1990,2.78125,2.78125,776000,2.8125,2.796875,2.2440505027770996
12-07-1990,2.796875,2.796875,1208800,2.90625,2.875,2.3067331314086914
13-07-1990,2.90625,2.90625,568000,3.0,2.96875,2.3819527626037598
16-07-1990,2.96875,2.984375,680800,3.0,2.96875,2.3819527626037598
17-07-1990,2.921875,2.96875,102400,2.96875,2.921875,2.344341516494751
18-07-1990,2.84375,2.921875,348000,2.921875,2.84375,2.2816591262817383
19-07-1990,2.796875,2.8125,465600,2.875,2.875,2.3067331314086914
20-07-1990,2.890625,2.890625,51200,2.90625,2.890625,2.3192667961120605
23-07-1990,2.859375,2.875,349600,2.9375,2.9375,2.3568785190582275
24-07-1990,2.90625,2.90625,353600,3.015625,2.984375,2.394489049911499
25-07-1990,3.0,3.015625,52000,3.03125,3.03125,2.432098388671875
26-07-1990,3.03125,3.0625,80000,3.0625,3.0625,2.457172155380249
27-07-1990,2.984375,3.03125,75200,3.0625,2.984375,2.394489049911499
30-07-1990,2.984375,3.0,160800,3.0,3.0,2.4070260524749756
31-07-1990,2.953125,2.953125,175200,3.015625,3.0,2.4070260524749756
01-08-1990,3.0,3.03125,134400,3.0625,3.015625,2.419562339782715
02-08-1990,3.03125,3.125,1056800,3.171875,3.171875,2.5449275970458984
03-08-1990,3.109375,3.15625,1272000,3.265625,3.203125,2.5700008869171143
06-08-1990,3.125,3.25,247200,3.265625,3.125,2.507319211959839
07-08-1990,3.125,3.125,148800,3.140625,3.140625,2.519854784011841
08-08-1990,3.09375,3.125,170400,3.140625,3.09375,2.4822449684143066
09-08-1990,3.0625,3.09375,296000,3.09375,3.09375,2.4822449684143066
10-08-1990,3.09375,3.09375,299200,3.109375,3.09375,2.4822449684143066
13-08-1990,3.078125,3.109375,56800,3.125,3.078125,2.46970796585083
14-08-1990,3.0625,3.109375,49600,3.109375,3.0625,2.457172155380249
15-08-1990,3.0625,3.0625,196000,3.15625,3.125,2.507319211959839
16-08-1990,3.078125,3.109375,140000,3.125,3.109375,2.494781732559204
17-08-1990,3.125,3.140625,201600,3.1875,3.140625,2.519854784011841
20-08-1990,3.046875,3.15625,239200,3.15625,3.046875,2.4446346759796143
21-08-1990,3.0625,3.0625,452000,3.09375,3.078125,2.46970796585083
22-08-1990,3.015625,3.0625,333600,3.09375,3.015625,2.419562339782715
23-08-1990,2.9375,3.0,364000,3.0,2.96875,2.3819527626037598
24-08-1990,2.921875,2.921875,326400,3.0,3.0,2.4070260524749756
27-08-1990,2.953125,3.0,88000,3.0,2.953125,2.369415044784546
28-08-1990,2.953125,2.953125,8000,2.984375,2.984375,2.394489049911499
29-08-1990,2.9375,3.015625,140800,3.015625,2.9375,2.3568785190582275
30-08-1990,2.90625,2.953125,65600,2.984375,2.984375,2.394489049911499
31-08-1990,2.890625,2.953125,256800,2.984375,2.921875,2.344341516494751
04-09-1990,2.9375,2.9375,20000,2.953125,2.953125,2.369415044784546
05-09-1990,2.953125,2.953125,223200,3.1875,3.171875,2.5449275970458984
06-09-1990,3.1875,3.203125,317600,3.296875,3.296875,2.64522123336792
07-09-1990,3.296875,3.296875,160800,3.359375,3.359375,2.695366859436035
10-09-1990,3.328125,3.328125,1408800,3.390625,3.359375,2.695366859436035
11-09-1990,3.1875,3.375,963200,3.375,3.3125,2.657757043838501
12-09-1990,3.265625,3.34375,336000,3.34375,3.3125,2.657757043838501
13-09-1990,3.25,3.3125,405600,3.328125,3.25,2.6076107025146484
14-09-1990,3.25,3.25,209600,3.390625,3.390625,2.7204394340515137
17-09-1990,3.375,3.390625,1116000,3.46875,3.46875,2.7831225395202637
18-09-1990,3.46875,3.46875,776800,3.765625,3.671875,2.946098566055298
19-09-1990,3.65625,3.6875,1624800,3.6875,3.65625,2.933561086654663
20-09-1990,3.53125,3.65625,432000,3.65625,3.53125,2.8332691192626953
21-09-1990,3.46875,3.484375,521600,3.5625,3.5625,2.858342170715332
24-09-1990,3.484375,3.5625,112800,3.5625,3.515625,2.8207318782806396
25-09-1990,3.5,3.5,221600,3.515625,3.515625,2.8207318782806396
26-09-1990,3.453125,3.515625,55200,3.515625,3.46875,2.7831225395202637
27-09-1990,3.375,3.4375,72800,3.453125,3.375,2.7079029083251953
28-09-1990,3.28125,3.375,163200,3.375,3.34375,2.6828315258026123
01-10-1990,3.296875,3.328125,455200,3.390625,3.34375,2.6828315258026123
02-10-1990,3.328125,3.359375,72000,3.359375,3.359375,2.695366859436035
03-10-1990,3.3125,3.34375,26400,3.34375,3.34375,2.6828315258026123
04-10-1990,3.25,3.34375,313600,3.34375,3.25,2.6076107025146484
05-10-1990,3.1875,3.234375,550400,3.296875,3.1875,2.557464838027954
08-10-1990,3.1875,3.203125,411200,3.234375,3.1875,2.557464838027954
09-10-1990,3.203125,3.203125,298400,3.375,3.34375,2.6881022453308105
10-10-1990,3.21875,3.34375,200000,3.34375,3.234375,2.600172758102417
11-10-1990,3.203125,3.25,34400,3.25,3.21875,2.587611198425293
12-10-1990,3.171875,3.1875,89600,3.203125,3.203125,2.5750513076782227
15-10-1990,3.15625,3.203125,36800,3.203125,3.15625,2.5373666286468506
16-10-1990,3.109375,3.140625,153600,3.15625,3.109375,2.499682903289795
17-10-1990,3.09375,3.109375,11200,3.125,3.125,2.51224422454834
18-10-1990,3.109375,3.109375,113600,3.125,3.109375,2.499682903289795
19-10-1990,3.078125,3.109375,36800,3.109375,3.09375,2.48712158203125
22-10-1990,3.0625,3.109375,68000,3.109375,3.0625,2.4619994163513184
23-10-1990,3.0625,3.0625,17600,3.109375,3.109375,2.499682903289795
24-10-1990,3.125,3.125,120000,3.15625,3.15625,2.5373666286468506
25-10-1990,3.1875,3.1875,112800,3.328125,3.328125,2.6755411624908447
26-10-1990,3.3125,3.3125,22400,3.359375,3.359375,2.700662851333618
29-10-1990,3.359375,3.375,16000,3.375,3.359375,2.700662851333618
30-10-1990,3.28125,3.34375,29600,3.359375,3.296875,2.6504175662994385
31-10-1990,3.3125,3.3125,366400,3.453125,3.375,2.713224172592163
01-11-1990,3.359375,3.375,163200,3.375,3.375,2.713224172592163
02-11-1990,3.375,3.375,469600,3.53125,3.5,2.813713550567627
05-11-1990,3.46875,3.53125,426400,3.546875,3.46875,2.788590669631958
06-11-1990,3.421875,3.484375,8800,3.484375,3.421875,2.750908136367798
07-11-1990,3.375,3.421875,148000,3.421875,3.375,2.713224172592163
08-11-1990,3.34375,3.34375,37600,3.390625,3.390625,2.7257866859436035
09-11-1990,3.375,3.375,397600,3.4375,3.421875,2.750908136367798
12-11-1990,3.328125,3.390625,76800,3.390625,3.328125,2.6755411624908447
13-11-1990,3.109375,3.15625,208000,3.15625,3.109375,2.499682903289795
14-11-1990,3.109375,3.125,75200,3.1875,3.1875,2.5624895095825195
15-11-1990,3.125,3.15625,45600,3.171875,3.140625,2.524806022644043
16-11-1990,3.09375,3.140625,300800,3.15625,3.15625,2.5373666286468506
19-11-1990,2.984375,3.15625,456800,3.15625,2.984375,2.3991925716400146
20-11-1990,2.84375,2.96875,329600,2.96875,2.921875,2.3489489555358887
21-11-1990,2.890625,2.90625,32800,2.96875,2.96875,2.3866324424743652
23-11-1990,2.96875,2.96875,18400,2.984375,2.96875,2.3866324424743652
26-11-1990,2.96875,2.984375,40000,3.0,2.96875,2.3866324424743652
27-11-1990,2.9375,2.984375,39200,2.984375,2.953125,2.3740696907043457
28-11-1990,2.90625,2.953125,145600,2.953125,2.921875,2.3489489555358887
29-11-1990,2.90625,2.90625,36800,2.90625,2.90625,2.336388349533081
30-11-1990,2.765625,2.875,236000,2.890625,2.8125,2.2610201835632324
03-12-1990,2.609375,2.796875,366400,2.796875,2.75,2.2107741832733154
04-12-1990,2.671875,2.734375,230400,2.734375,2.71875,2.1856532096862793
05-12-1990,2.71875,2.71875,432000,2.796875,2.78125,2.235896587371826
06-12-1990,2.734375,2.78125,248800,2.8125,2.75,2.2107741832733154
07-12-1990,2.625,2.71875,257600,2.71875,2.71875,2.1856532096862793
10-12-1990,2.703125,2.734375,179200,2.734375,2.71875,2.1856532096862793
11-12-1990,2.703125,2.703125,981600,2.78125,2.734375,2.198213815689087
12-12-1990,2.734375,2.75,493600,2.78125,2.78125,2.235896587371826
13-12-1990,2.71875,2.75,908000,2.75,2.71875,2.1856532096862793
14-12-1990,2.65625,2.71875,207200,2.78125,2.78125,2.235896587371826
17-12-1990,2.734375,2.796875,89600,2.828125,2.734375,2.198213815689087
18-12-1990,2.703125,2.765625,153600,2.796875,2.703125,2.173090934753418
19-12-1990,2.640625,2.703125,277600,2.734375,2.640625,2.1228466033935547
20-12-1990,2.546875,2.609375,1007200,2.609375,2.5625,2.0600390434265137
21-12-1990,2.484375,2.484375,980000,2.515625,2.5,2.0097951889038086
24-12-1990,2.5,2.5,222400,2.546875,2.546875,2.0474796295166016
26-12-1990,2.5625,2.5625,93600,2.75,2.75,2.2107741832733154
27-12-1990,2.71875,2.75,51200,2.75,2.734375,2.198213815689087
28-12-1990,2.65625,2.71875,49600,2.71875,2.65625,2.135408878326416
31-12-1990,2.53125,2.65625,364800,2.65625,2.65625,2.135408878326416
02-01-1991,2.59375,2.625,36000,2.625,2.59375,2.0851619243621826
03-01-1991,2.484375,2.59375,413600,2.59375,2.484375,1.997234582901001
04-01-1991,2.328125,2.4375,216800,2.4375,2.328125,1.8716225624084473
07-01-1991,2.21875,2.296875,599200,2.3125,2.265625,1.8213770389556885
08-01-1991,2.15625,2.25,679200,2.265625,2.15625,1.7334486246109009
09-01-1991,2.140625,2.171875,572000,2.1875,2.140625,1.7258906364440918
10-01-1991,2.09375,2.125,296000,2.140625,2.140625,1.7258906364440918
11-01-1991,2.109375,2.109375,278400,2.21875,2.21875,1.7888795137405396
14-01-1991,2.21875,2.234375,172800,2.265625,2.25,1.8140740394592285
15-01-1991,2.171875,2.25,92800,2.25,2.234375,1.801476240158081
16-01-1991,2.171875,2.234375,50400,2.25,2.203125,1.7762808799743652
17-01-1991,2.03125,2.1875,1341600,2.25,2.203125,1.7762808799743652
18-01-1991,2.15625,2.203125,275200,2.21875,2.1875,1.7636823654174805
21-01-1991,2.0625,2.15625,550400,2.15625,2.125,1.7132933139801025
22-01-1991,2.125,2.15625,174400,2.171875,2.125,1.7132933139801025
23-01-1991,2.140625,2.140625,837600,2.265625,2.25,1.8140740394592285
24-01-1991,2.265625,2.3125,495200,2.34375,2.28125,1.8392695188522339
25-01-1991,2.21875,2.3125,817600,2.375,2.25,1.8140740394592285
28-01-1991,2.203125,2.28125,679200,2.296875,2.234375,1.801476240158081
29-01-1991,2.25,2.25,99200,2.265625,2.25,1.8140740394592285
30-01-1991,2.203125,2.21875,132000,2.25,2.234375,1.801476240158081
31-01-1991,2.15625,2.21875,384800,2.21875,2.171875,1.751084804534912
01-02-1991,2.15625,2.15625,869600,2.21875,2.21875,1.7888795137405396
04-02-1991,2.203125,2.21875,961600,2.28125,2.25,1.8140740394592285
05-02-1991,2.25,2.25,1217600,2.375,2.28125,1.8392695188522339
06-02-1991,2.28125,2.28125,1186400,2.5,2.484375,2.0030407905578613
07-02-1991,2.546875,2.546875,1224000,2.78125,2.6875,2.1668100357055664
08-02-1991,2.640625,2.65625,94400,2.6875,2.671875,2.1542134284973145
11-02-1991,2.640625,2.6875,307200,2.75,2.703125,2.179408073425293
12-02-1991,2.59375,2.734375,216000,2.734375,2.59375,2.0912234783172607
13-02-1991,2.625,2.625,45600,2.703125,2.703125,2.179408073425293
14-02-1991,2.515625,2.6875,148800,2.6875,2.515625,2.0282351970672607
15-02-1991,2.484375,2.484375,356800,2.609375,2.609375,2.103823184967041
19-02-1991,2.515625,2.59375,160800,2.59375,2.546875,2.053431510925293
20-02-1991,2.515625,2.546875,219200,2.625,2.625,2.1164212226867676
21-02-1991,2.59375,2.609375,188000,2.625,2.59375,2.0912234783172607
22-02-1991,2.453125,2.59375,408000,2.59375,2.453125,1.977844476699829
25-02-1991,2.328125,2.453125,88800,2.453125,2.328125,1.8770633935928345
26-02-1991,2.265625,2.3125,776800,2.328125,2.3125,1.8644652366638184
27-02-1991,2.34375,2.34375,1544000,2.453125,2.4375,1.965246558189392
28-02-1991,2.453125,2.46875,578400,2.59375,2.59375,2.0912234783172607
01-03-1991,2.53125,2.59375,692800,2.59375,2.546875,2.053431510925293
04-03-1991,2.546875,2.546875,555200,2.609375,2.59375,2.0912234783172607
05-03-1991,2.5625,2.5625,418400,2.578125,2.578125,2.0786263942718506
06-03-1991,2.546875,2.546875,180800,2.59375,2.5625,2.0660276412963867
07-03-1991,2.5625,2.5625,280800,2.625,2.625,2.1164212226867676
08-03-1991,2.59375,2.625,442400,2.78125,2.671875,2.1542134284973145
11-03-1991,2.6875,2.6875,116000,2.75,2.71875,2.192007064819336
12-03-1991,2.6875,2.75,163200,2.75,2.6875,2.1668100357055664
13-03-1991,2.59375,2.671875,147200,2.671875,2.59375,2.0912234783172607
14-03-1991,2.546875,2.578125,184000,2.59375,2.5625,2.0660276412963867
15-03-1991,2.546875,2.546875,289600,2.65625,2.625,2.1164212226867676
18-03-1991,2.625,2.640625,136000,2.6875,2.6875,2.1668100357055664
19-03-1991,2.609375,2.65625,172000,2.65625,2.625,2.1164212226867676
20-03-1991,2.625,2.625,71200,2.65625,2.65625,2.1416165828704834
21-03-1991,2.65625,2.671875,327200,2.734375,2.734375,2.204603910446167
22-03-1991,2.703125,2.734375,93600,2.734375,2.703125,2.179408073425293
25-03-1991,2.640625,2.71875,115200,2.71875,2.703125,2.179408073425293
26-03-1991,2.625,2.671875,447200,2.6875,2.65625,2.1416165828704834
27-03-1991,2.578125,2.640625,86400,2.640625,2.578125,2.0786263942718506
28-03-1991,2.515625,2.578125,70400,2.59375,2.515625,2.0282351970672607
01-04-1991,2.453125,2.53125,128000,2.53125,2.453125,1.977844476699829
02-04-1991,2.359375,2.46875,367200,2.46875,2.375,1.9148566722869873
03-04-1991,2.3125,2.359375,1358400,2.4375,2.3125,1.8644652366638184
04-04-1991,2.34375,2.34375,1049600,2.40625,2.40625,1.9400514364242554
05-04-1991,2.421875,2.421875,73600,2.484375,2.484375,2.0030407905578613
08-04-1991,2.4375,2.46875,24000,2.46875,2.4375,1.965246558189392
09-04-1991,2.375,2.40625,198400,2.4375,2.4375,1.965246558189392
10-04-1991,2.34375,2.421875,198400,2.421875,2.390625,1.9324082136154175
11-04-1991,2.359375,2.40625,255200,2.4375,2.40625,1.9450385570526123
12-04-1991,2.390625,2.40625,398400,2.46875,2.46875,1.9955605268478394
15-04-1991,2.5,2.5,258400,2.5625,2.546875,2.058710813522339
16-04-1991,2.53125,2.53125,468000,2.640625,2.625,2.1218624114990234
17-04-1991,2.578125,2.640625,662400,2.640625,2.578125,2.083970069885254
18-04-1991,2.609375,2.609375,68800,2.640625,2.625,2.1218624114990234
19-04-1991,2.5625,2.609375,20000,2.625,2.578125,2.083970069885254
22-04-1991,2.484375,2.578125,263200,2.578125,2.5,2.0208194255828857
23-04-1991,2.453125,2.484375,69600,2.5,2.5,2.0208194255828857
24-04-1991,2.46875,2.5,44800,2.5,2.5,2.0208194255828857
25-04-1991,2.46875,2.484375,70400,2.484375,2.46875,1.9955605268478394
26-04-1991,2.421875,2.453125,24000,2.453125,2.4375,1.9702985286712646
29-04-1991,2.34375,2.421875,373600,2.421875,2.34375,1.8945186138153076
30-04-1991,2.328125,2.375,1024800,2.375,2.375,1.9197791814804077
01-05-1991,2.34375,2.375,403200,2.421875,2.421875,1.957668423652649
02-05-1991,2.375,2.40625,714400,2.40625,2.375,1.9197791814804077
03-05-1991,2.359375,2.40625,464000,2.4375,2.390625,1.9324082136154175
06-05-1991,2.359375,2.375,11200,2.375,2.359375,1.907147765159607
07-05-1991,2.28125,2.375,360800,2.375,2.34375,1.8945186138153076
08-05-1991,2.328125,2.34375,567200,2.453125,2.4375,1.9702985286712646
09-05-1991,2.40625,2.453125,150400,2.46875,2.46875,1.9955605268478394
10-05-1991,2.375,2.453125,88800,2.453125,2.375,1.9197791814804077
13-05-1991,2.28125,2.359375,872000,2.359375,2.28125,1.843997597694397
14-05-1991,2.28125,2.28125,366400,2.375,2.3125,1.869258165359497
15-05-1991,2.3125,2.3125,276000,2.40625,2.390625,1.9324082136154175
16-05-1991,2.421875,2.453125,404000,2.46875,2.421875,1.957668423652649
17-05-1991,2.390625,2.421875,25600,2.421875,2.40625,1.9450385570526123
20-05-1991,2.390625,2.40625,121600,2.4375,2.40625,1.9450385570526123
21-05-1991,2.34375,2.4375,480800,2.4375,2.375,1.9197791814804077
22-05-1991,2.375,2.375,31200,2.390625,2.390625,1.9324082136154175
23-05-1991,2.375,2.40625,240800,2.421875,2.40625,1.9450385570526123
24-05-1991,2.375,2.421875,160800,2.453125,2.390625,1.9324082136154175
28-05-1991,2.375,2.375,60000,2.453125,2.4375,1.9702985286712646
29-05-1991,2.421875,2.4375,334400,2.4375,2.4375,1.9702985286712646
30-05-1991,2.421875,2.4375,521600,2.5,2.5,2.0208194255828857
31-05-1991,2.53125,2.53125,1612000,2.625,2.625,2.1218624114990234
03-06-1991,2.609375,2.65625,256000,2.6875,2.625,2.1218624114990234
04-06-1991,2.625,2.65625,1272800,2.671875,2.625,2.1218624114990234
05-06-1991,2.578125,2.625,141600,2.625,2.578125,2.083970069885254
06-06-1991,2.5625,2.5625,201600,2.609375,2.59375,2.096599578857422
07-06-1991,2.53125,2.59375,473600,2.59375,2.53125,2.0460805892944336
10-06-1991,2.53125,2.546875,168000,2.5625,2.53125,2.0460805892944336
11-06-1991,2.4375,2.53125,155200,2.53125,2.5,2.0208194255828857
12-06-1991,2.484375,2.5,51200,2.5,2.5,2.0208194255828857
13-06-1991,2.484375,2.5,1600,2.5,2.484375,2.0081899166107178
14-06-1991,2.46875,2.46875,83200,2.46875,2.46875,1.9955605268478394
17-06-1991,2.453125,2.46875,21600,2.46875,2.453125,1.9829291105270386
18-06-1991,2.4375,2.46875,341600,2.46875,2.46875,1.9955605268478394
19-06-1991,2.46875,2.46875,170400,2.5,2.5,2.0208194255828857
20-06-1991,2.375,2.4375,30400,2.4375,2.375,1.9197791814804077
21-06-1991,2.3125,2.34375,251200,2.375,2.34375,1.8945186138153076
24-06-1991,2.3125,2.359375,124800,2.375,2.375,1.9197791814804077
25-06-1991,2.359375,2.375,39200,2.375,2.359375,1.907147765159607
26-06-1991,2.296875,2.328125,188000,2.359375,2.3125,1.869258165359497
27-06-1991,2.28125,2.3125,260800,2.34375,2.3125,1.869258165359497
28-06-1991,2.25,2.3125,418400,2.3125,2.25,1.8187376260757446
01-07-1991,2.203125,2.25,188800,2.25,2.203125,1.7808473110198975
02-07-1991,2.21875,2.21875,127200,2.25,2.234375,1.806107521057129
03-07-1991,2.203125,2.203125,267200,2.28125,2.25,1.8187376260757446
05-07-1991,2.25,2.25,3200,2.25,2.25,1.8187376260757446
08-07-1991,2.25,2.25,192800,2.296875,2.296875,1.8566265106201172
09-07-1991,2.234375,2.28125,359200,2.3125,2.265625,1.8363648653030396
10-07-1991,2.234375,2.25,56000,2.25,2.234375,1.8110352754592896
11-07-1991,2.25,2.25,152800,2.328125,2.3125,1.8743584156036377
12-07-1991,2.28125,2.34375,1025600,2.359375,2.296875,1.861693263053894
15-07-1991,2.328125,2.328125,791200,2.375,2.375,1.9250167608261108
16-07-1991,2.34375,2.359375,1204800,2.421875,2.421875,1.9630100727081299
17-07-1991,2.4375,2.453125,1052000,2.59375,2.59375,2.102320909500122
18-07-1991,2.625,2.625,304800,2.671875,2.671875,2.1656432151794434
19-07-1991,2.609375,2.671875,73600,2.671875,2.625,2.1276514530181885
22-07-1991,2.5625,2.625,72000,2.625,2.59375,2.102320909500122
23-07-1991,2.578125,2.609375,124000,2.625,2.578125,2.089656352996826
24-07-1991,2.578125,2.578125,39200,2.59375,2.578125,2.089656352996826
25-07-1991,2.5625,2.5625,232800,2.578125,2.5625,2.076990842819214
26-07-1991,2.5625,2.5625,226400,2.59375,2.59375,2.102320909500122
29-07-1991,2.59375,2.609375,6400,2.609375,2.609375,2.1149868965148926
30-07-1991,2.59375,2.59375,582400,2.65625,2.625,2.1276514530181885
31-07-1991,2.53125,2.5625,698400,2.578125,2.53125,2.051661968231201
01-08-1991,2.53125,2.53125,248800,2.578125,2.5625,2.076990842819214
02-08-1991,2.546875,2.546875,71200,2.546875,2.546875,2.064326047897339
05-08-1991,2.546875,2.5625,96800,2.578125,2.5625,2.076990842819214
06-08-1991,2.5625,2.5625,457600,2.625,2.59375,2.102320909500122
07-08-1991,2.59375,2.59375,733600,2.625,2.625,2.1276514530181885
08-08-1991,2.625,2.640625,413600,2.6875,2.640625,2.140314817428589
09-08-1991,2.625,2.625,111200,2.65625,2.65625,2.152979850769043
12-08-1991,2.640625,2.6875,223200,2.703125,2.65625,2.152979850769043
13-08-1991,2.640625,2.640625,118400,2.6875,2.6875,2.1783082485198975
14-08-1991,2.671875,2.671875,372000,2.75,2.75,2.228965997695923
15-08-1991,2.71875,2.75,369600,2.75,2.75,2.228965997695923
16-08-1991,2.703125,2.734375,490400,2.734375,2.703125,2.1909725666046143
19-08-1991,2.609375,2.671875,91200,2.671875,2.609375,2.1149868965148926
20-08-1991,2.609375,2.609375,22400,2.625,2.625,2.1276514530181885
21-08-1991,2.609375,2.625,78400,2.625,2.625,2.1276514530181885
22-08-1991,2.5625,2.640625,292800,2.640625,2.59375,2.102320909500122
23-08-1991,2.59375,2.59375,1125600,2.75,2.75,2.228965997695923
26-08-1991,2.734375,2.75,183200,2.78125,2.75,2.228965997695923
27-08-1991,2.75,2.75,362400,2.84375,2.8125,2.2796239852905273
28-08-1991,2.828125,2.84375,203200,2.953125,2.9375,2.3809406757354736
29-08-1991,2.921875,2.921875,416800,3.0,2.953125,2.3936052322387695
30-08-1991,2.90625,2.96875,236800,2.96875,2.921875,2.3682775497436523
03-09-1991,2.78125,2.890625,230400,2.890625,2.78125,2.2542951107025146
04-09-1991,2.75,2.765625,175200,2.8125,2.765625,2.241629123687744
05-09-1991,2.796875,2.796875,309600,2.828125,2.8125,2.2796239852905273
06-09-1991,2.78125,2.8125,55200,2.828125,2.828125,2.292290210723877
09-09-1991,2.8125,2.8125,8000,2.84375,2.84375,2.3049540519714355
10-09-1991,2.8125,2.828125,452800,2.84375,2.84375,2.3049540519714355
11-09-1991,2.8125,2.828125,145600,2.84375,2.84375,2.3049540519714355
12-09-1991,2.84375,2.859375,48000,2.859375,2.84375,2.3049540519714355
13-09-1991,2.828125,2.875,366400,2.875,2.84375,2.3049540519714355
16-09-1991,2.828125,2.859375,433600,2.859375,2.84375,2.3049540519714355
17-09-1991,2.84375,2.84375,648800,2.890625,2.890625,2.3429455757141113
18-09-1991,2.90625,2.90625,136800,2.9375,2.9375,2.3809406757354736
19-09-1991,2.921875,2.953125,153600,3.03125,3.03125,2.4569292068481445
20-09-1991,3.0,3.078125,312000,3.078125,3.03125,2.4569292068481445
23-09-1991,2.96875,3.0625,113600,3.0625,2.96875,2.4062700271606445
24-09-1991,2.875,2.96875,77600,2.96875,2.875,2.3302831649780273
25-09-1991,2.875,2.890625,7200,2.890625,2.875,2.3302831649780273
26-09-1991,2.875,2.90625,296000,2.953125,2.953125,2.3936052322387695
27-09-1991,2.953125,2.96875,70400,3.0,2.96875,2.4062700271606445
30-09-1991,2.953125,2.953125,229600,2.984375,2.984375,2.4189348220825195
01-10-1991,2.859375,2.984375,1317600,3.0,2.859375,2.317617416381836
02-10-1991,2.84375,2.84375,740800,2.9375,2.90625,2.3556132316589355
03-10-1991,2.890625,2.90625,106400,2.90625,2.890625,2.3429455757141113
04-10-1991,2.859375,2.875,599200,2.890625,2.890625,2.3429455757141113
07-10-1991,2.859375,2.875,973600,2.9375,2.9375,2.3809406757354736
08-10-1991,2.90625,2.9375,735200,2.953125,2.9375,2.3860177993774414
09-10-1991,2.90625,2.9375,43200,2.9375,2.90625,2.3606350421905518
10-10-1991,2.875,2.90625,144000,2.921875,2.90625,2.3606350421905518
11-10-1991,2.90625,2.921875,23200,2.921875,2.921875,2.373325824737549
14-10-1991,2.9375,2.9375,32000,2.984375,2.96875,2.4114019870758057
15-10-1991,2.984375,2.984375,181600,3.015625,3.015625,2.449474334716797
16-10-1991,3.0,3.046875,104000,3.078125,3.0,2.4367852210998535
17-10-1991,2.984375,3.0,89600,3.03125,3.03125,2.462167501449585
18-10-1991,3.0,3.046875,87200,3.046875,3.0,2.4367852210998535
21-10-1991,2.984375,2.984375,3200,2.984375,2.984375,2.4240927696228027
22-10-1991,2.875,2.953125,495200,2.953125,2.875,2.3352527618408203
23-10-1991,2.890625,2.953125,95200,2.953125,2.890625,2.347942590713501
24-10-1991,2.84375,2.875,35200,2.875,2.84375,2.309868097305298
25-10-1991,2.75,2.8125,277600,2.8125,2.765625,2.246410369873047
28-10-1991,2.75,2.75,181600,2.84375,2.84375,2.309868097305298
29-10-1991,2.75,2.859375,404800,2.859375,2.765625,2.246410369873047
30-10-1991,2.78125,2.78125,12800,2.796875,2.796875,2.2717936038970947
31-10-1991,2.796875,2.8125,37600,2.84375,2.84375,2.309868097305298
01-11-1991,2.84375,2.859375,62400,2.9375,2.9375,2.3860177993774414
04-11-1991,2.921875,2.921875,624800,3.078125,3.03125,2.462167501449585
05-11-1991,3.046875,3.046875,421600,3.140625,3.109375,2.5256261825561523
06-11-1991,3.03125,3.140625,228000,3.140625,3.03125,2.462167501449585
07-11-1991,3.0,3.046875,206400,3.046875,3.03125,2.462167501449585
08-11-1991,3.015625,3.015625,96800,3.0625,3.0625,2.4875504970550537
11-11-1991,3.03125,3.0625,20000,3.0625,3.03125,2.462167501449585
12-11-1991,3.0,3.0,71200,3.046875,3.03125,2.462167501449585
13-11-1991,3.03125,3.03125,127200,3.140625,3.125,2.5383169651031494
14-11-1991,3.015625,3.125,102400,3.125,3.03125,2.462167501449585
15-11-1991,2.890625,3.015625,141600,3.015625,2.9375,2.3860177993774414
18-11-1991,2.875,2.9375,236800,2.9375,2.875,2.3352527618408203
19-11-1991,2.8125,2.890625,143200,2.890625,2.8125,2.284485340118408
20-11-1991,2.78125,2.796875,144000,2.796875,2.78125,2.2591023445129395
21-11-1991,2.78125,2.78125,202400,2.84375,2.796875,2.2717936038970947
22-11-1991,2.75,2.78125,97600,2.78125,2.75,2.233720302581787
25-11-1991,2.75,2.75,16800,2.765625,2.765625,2.246410369873047
26-11-1991,2.609375,2.75,346400,2.75,2.625,2.1321866512298584
27-11-1991,2.625,2.640625,76800,2.65625,2.625,2.1321866512298584
29-11-1991,2.640625,2.640625,28800,2.65625,2.65625,2.1575686931610107
02-12-1991,2.59375,2.65625,299200,2.671875,2.59375,2.1068050861358643
03-12-1991,2.59375,2.59375,97600,2.65625,2.65625,2.1575686931610107
04-12-1991,2.625,2.65625,20800,2.65625,2.625,2.1321866512298584
05-12-1991,2.625,2.625,96800,2.6875,2.640625,2.144879102706909
06-12-1991,2.640625,2.640625,858400,2.65625,2.640625,2.144879102706909
09-12-1991,2.59375,2.625,57600,2.625,2.59375,2.1068050861358643
10-12-1991,2.484375,2.5625,171200,2.5625,2.5,2.030654191970825
11-12-1991,2.453125,2.515625,415200,2.5625,2.546875,2.0687289237976074
12-12-1991,2.515625,2.515625,124000,2.53125,2.53125,2.056037425994873
13-12-1991,2.5,2.53125,319200,2.53125,2.5,2.030654191970825
16-12-1991,2.484375,2.5,372800,2.515625,2.515625,2.0433454513549805
17-12-1991,2.515625,2.515625,683200,2.53125,2.53125,2.056037425994873
18-12-1991,2.546875,2.546875,112800,2.578125,2.578125,2.094111204147339
19-12-1991,2.53125,2.5625,392800,2.5625,2.546875,2.0687289237976074
20-12-1991,2.5,2.53125,164800,2.53125,2.515625,2.0433454513549805
23-12-1991,2.421875,2.5,1115200,2.5,2.421875,1.9671965837478638
24-12-1991,2.40625,2.421875,107200,2.515625,2.515625,2.0433454513549805
26-12-1991,2.5,2.5,15200,2.515625,2.5,2.030654191970825
27-12-1991,2.46875,2.5,48000,2.5,2.46875,2.0052707195281982
30-12-1991,2.421875,2.46875,920800,2.46875,2.4375,1.9798871278762817
31-12-1991,2.421875,2.4375,116000,2.484375,2.4375,1.9798871278762817
02-01-1992,2.390625,2.421875,732000,2.421875,2.390625,1.9418126344680786
03-01-1992,2.375,2.390625,277600,2.390625,2.375,1.9291213750839233
06-01-1992,2.3125,2.390625,528000,2.390625,2.328125,1.891047477722168
07-01-1992,2.140625,2.3125,584000,2.3125,2.140625,1.7387473583221436
08-01-1992,2.109375,2.125,692800,2.203125,2.125,1.7260562181472778
09-01-1992,2.109375,2.125,348000,2.171875,2.171875,1.7641308307647705
10-01-1992,2.140625,2.15625,840800,2.234375,2.234375,1.8148972988128662
13-01-1992,2.234375,2.234375,456000,2.328125,2.296875,1.8656625747680664
14-01-1992,2.21875,2.296875,281600,2.3125,2.21875,1.802205204963684
15-01-1992,2.234375,2.234375,377600,2.296875,2.28125,1.8529713153839111
16-01-1992,2.28125,2.28125,80800,2.328125,2.328125,1.891047477722168
17-01-1992,2.359375,2.359375,47200,2.421875,2.421875,1.9671965837478638
20-01-1992,2.421875,2.421875,91200,2.53125,2.515625,2.0433454513549805
21-01-1992,2.515625,2.53125,578400,2.546875,2.515625,2.0433454513549805
22-01-1992,2.484375,2.515625,300000,2.515625,2.484375,2.0179617404937744
23-01-1992,2.453125,2.46875,313600,2.5,2.453125,1.9925777912139893
24-01-1992,2.3125,2.453125,1104800,2.453125,2.3125,1.8783537149429321
27-01-1992,2.25,2.296875,292800,2.296875,2.265625,1.8402796983718872
28-01-1992,2.1875,2.265625,2736800,2.265625,2.1875,1.7768217325210571
29-01-1992,2.15625,2.203125,463200,2.25,2.203125,1.7895140647888184
30-01-1992,2.140625,2.140625,405600,2.21875,2.1875,1.7768217325210571
31-01-1992,2.1875,2.203125,714400,2.296875,2.25,1.8275885581970215
03-02-1992,2.21875,2.265625,96800,2.265625,2.234375,1.8148972988128662
04-02-1992,2.1875,2.21875,355200,2.234375,2.203125,1.7895140647888184
05-02-1992,2.15625,2.203125,604000,2.203125,2.171875,1.7641308307647705
06-02-1992,2.09375,2.1875,492800,2.1875,2.09375,1.7006725072860718
07-02-1992,2.078125,2.078125,704000,2.21875,2.21875,1.802205204963684
10-02-1992,2.234375,2.234375,782400,2.34375,2.328125,1.891047477722168
11-02-1992,2.3125,2.328125,241600,2.34375,2.3125,1.8783537149429321
12-02-1992,2.28125,2.3125,446400,2.328125,2.3125,1.8783537149429321
13-02-1992,2.296875,2.3125,161600,2.3125,2.296875,1.8656625747680664
14-02-1992,2.28125,2.296875,190400,2.328125,2.328125,1.891047477722168
18-02-1992,2.28125,2.3125,504800,2.3125,2.296875,1.8656625747680664
19-02-1992,2.265625,2.28125,20800,2.28125,2.265625,1.8402796983718872
20-02-1992,2.265625,2.265625,260800,2.296875,2.296875,1.8656625747680664
21-02-1992,2.296875,2.296875,311200,2.328125,2.3125,1.8783537149429321
24-02-1992,2.3125,2.328125,249600,2.34375,2.3125,1.8783537149429321
25-02-1992,2.28125,2.3125,144000,2.3125,2.28125,1.8529713153839111
26-02-1992,2.25,2.265625,835200,2.265625,2.265625,1.8402796983718872
27-02-1992,2.25,2.25,67200,2.296875,2.265625,1.8402796983718872
28-02-1992,2.234375,2.234375,321600,2.265625,2.234375,1.8148972988128662
02-03-1992,2.25,2.25,588800,2.296875,2.25,1.8275885581970215
03-03-1992,2.25,2.265625,608800,2.28125,2.25,1.8275885581970215
04-03-1992,2.234375,2.234375,488000,2.25,2.25,1.8275885581970215
05-03-1992,2.265625,2.265625,607200,2.28125,2.28125,1.8529713153839111
06-03-1992,2.28125,2.28125,404800,2.296875,2.28125,1.8529713153839111
09-03-1992,2.28125,2.28125,348000,2.328125,2.328125,1.891047477722168
10-03-1992,2.328125,2.328125,348000,2.40625,2.390625,1.9418126344680786
11-03-1992,2.390625,2.40625,376000,2.40625,2.40625,1.9545048475265503
12-03-1992,2.40625,2.4375,347200,2.4375,2.40625,1.9545048475265503
13-03-1992,2.421875,2.4375,138400,2.46875,2.46875,2.0052707195281982
16-03-1992,2.40625,2.5,122400,2.5,2.40625,1.9545048475265503
17-03-1992,2.421875,2.4375,569600,2.4375,2.4375,1.9798871278762817
18-03-1992,2.40625,2.421875,46400,2.421875,2.40625,1.9545048475265503
19-03-1992,2.375,2.4375,394400,2.4375,2.40625,1.9545048475265503
20-03-1992,2.453125,2.46875,232000,2.484375,2.46875,2.0052707195281982
23-03-1992,2.5,2.5,545600,2.546875,2.5,2.030654191970825
24-03-1992,2.5,2.5,618400,2.578125,2.5625,2.0814194679260254
25-03-1992,2.5625,2.578125,116800,2.578125,2.578125,2.094111204147339
26-03-1992,2.609375,2.609375,959200,2.734375,2.6875,2.182952642440796
27-03-1992,2.609375,2.625,236800,2.65625,2.625,2.1321866512298584
30-03-1992,2.609375,2.625,324800,2.625,2.625,2.1321866512298584
31-03-1992,2.640625,2.640625,307200,2.65625,2.65625,2.1575686931610107
01-04-1992,2.609375,2.65625,172800,2.65625,2.609375,2.1194956302642822
02-04-1992,2.578125,2.609375,878400,2.609375,2.59375,2.1068050861358643
03-04-1992,2.546875,2.5625,109600,2.5625,2.5625,2.0814194679260254
06-04-1992,2.578125,2.578125,336000,2.734375,2.734375,2.221029043197632
07-04-1992,2.6875,2.734375,612000,2.734375,2.6875,2.182952642440796
08-04-1992,2.625,2.671875,771200,2.671875,2.625,2.1321866512298584
09-04-1992,2.609375,2.609375,170400,2.75,2.75,2.239051580429077
10-04-1992,2.734375,2.734375,213600,2.75,2.734375,2.226327657699585
13-04-1992,2.75,2.765625,141600,2.78125,2.765625,2.251770496368408
14-04-1992,2.78125,2.78125,228000,2.8125,2.8125,2.289938449859619
15-04-1992,2.8125,2.8125,312000,2.828125,2.828125,2.302659749984741
16-04-1992,2.8125,2.8125,39200,2.828125,2.8125,2.289938449859619
20-04-1992,2.8125,2.8125,245600,2.890625,2.890625,2.353546619415283
21-04-1992,2.875,2.921875,337600,2.921875,2.90625,2.3662688732147217
22-04-1992,2.875,2.890625,8800,2.890625,2.875,2.3408243656158447
23-04-1992,2.84375,2.875,1366400,2.984375,2.875,2.3408243656158447
24-04-1992,3.0,3.03125,687200,3.171875,3.0,2.4426000118255615
27-04-1992,3.03125,3.0625,511200,3.09375,3.046875,2.480766773223877
28-04-1992,3.015625,3.046875,234400,3.046875,3.03125,2.4680442810058594
29-04-1992,3.03125,3.046875,237600,3.046875,3.03125,2.4680442810058594
30-04-1992,3.03125,3.046875,1008800,3.0625,3.046875,2.480766773223877
01-05-1992,3.03125,3.03125,146400,3.046875,3.046875,2.480766773223877
04-05-1992,3.0625,3.0625,251200,3.078125,3.0625,2.4934871196746826
05-05-1992,3.046875,3.046875,532000,3.078125,3.078125,2.5062096118927
06-05-1992,3.015625,3.078125,792800,3.078125,3.015625,2.455322265625
07-05-1992,2.96875,3.015625,61600,3.015625,2.96875,2.417156219482422
08-05-1992,2.9375,3.0,42400,3.0,2.953125,2.4044339656829834
11-05-1992,2.90625,2.953125,91200,2.953125,2.90625,2.3662688732147217
12-05-1992,2.75,2.921875,1191200,2.921875,2.796875,2.277214288711548
13-05-1992,2.765625,2.796875,261600,2.796875,2.765625,2.251770496368408
14-05-1992,2.6875,2.765625,1236800,2.84375,2.84375,2.3153820037841797
15-05-1992,2.8125,2.828125,509600,2.90625,2.890625,2.353546619415283
18-05-1992,2.90625,2.90625,431200,3.015625,3.0,2.4426000118255615
19-05-1992,2.953125,3.0,572000,3.046875,3.046875,2.480766773223877
20-05-1992,3.0625,3.0625,200800,3.09375,3.09375,2.5189313888549805
21-05-1992,3.078125,3.078125,946400,3.15625,3.09375,2.5189313888549805
22-05-1992,3.078125,3.09375,230400,3.15625,3.140625,2.5570974349975586
26-05-1992,3.125,3.140625,1300800,3.1875,3.1875,2.5952625274658203
27-05-1992,3.125,3.203125,1122400,3.25,3.125,2.5443756580352783
28-05-1992,3.078125,3.140625,627200,3.140625,3.125,2.5443756580352783
29-05-1992,3.078125,3.125,368800,3.125,3.09375,2.5189313888549805
01-06-1992,3.078125,3.078125,348800,3.171875,3.171875,2.5825400352478027
02-06-1992,3.125,3.140625,108000,3.15625,3.140625,2.5570974349975586
03-06-1992,3.125,3.15625,1278400,3.1875,3.15625,2.569819688796997
04-06-1992,3.125,3.125,1169600,3.140625,3.140625,2.5570974349975586
05-06-1992,3.140625,3.15625,816800,3.1875,3.1875,2.5952625274658203
08-06-1992,3.21875,3.21875,1822400,3.375,3.3125,2.6970372200012207
09-06-1992,3.28125,3.3125,2077600,3.34375,3.3125,2.6970372200012207
10-06-1992,3.21875,3.3125,778400,3.3125,3.28125,2.6715948581695557
11-06-1992,3.28125,3.28125,438400,3.40625,3.40625,2.773369550704956
12-06-1992,3.34375,3.375,2042400,3.375,3.34375,2.7224807739257812
15-06-1992,3.296875,3.328125,2438400,3.328125,3.3125,2.6970372200012207
16-06-1992,3.296875,3.328125,660800,3.328125,3.296875,2.684316873550415
17-06-1992,3.21875,3.3125,673600,3.3125,3.234375,2.633430004119873
18-06-1992,3.21875,3.21875,948800,3.265625,3.234375,2.633430004119873
19-06-1992,3.234375,3.25,417600,3.265625,3.234375,2.633430004119873
22-06-1992,3.203125,3.203125,568000,3.21875,3.203125,2.6079838275909424
23-06-1992,3.203125,3.203125,518400,3.21875,3.203125,2.6079838275909424
24-06-1992,3.171875,3.21875,224000,3.21875,3.21875,2.6207070350646973
25-06-1992,3.125,3.21875,307200,3.21875,3.125,2.5443756580352783
26-06-1992,3.109375,3.125,629600,3.140625,3.140625,2.5570974349975586
29-06-1992,3.125,3.125,1169600,3.1875,3.171875,2.5825400352478027
30-06-1992,3.15625,3.1875,1156800,3.1875,3.1875,2.5952625274658203
01-07-1992,3.203125,3.21875,694400,3.25,3.25,2.6461493968963623
02-07-1992,3.25,3.28125,2007200,3.296875,3.28125,2.6715948581695557
06-07-1992,3.296875,3.3125,771200,3.328125,3.3125,2.6970372200012207
07-07-1992,3.3125,3.3125,655200,3.359375,3.328125,2.7097599506378174
08-07-1992,3.3125,3.328125,480800,3.34375,3.328125,2.7097599506378174
09-07-1992,3.328125,3.34375,424000,3.375,3.359375,2.740349054336548
10-07-1992,3.328125,3.390625,568800,3.390625,3.328125,2.714857578277588
13-07-1992,3.328125,3.328125,624800,3.359375,3.359375,2.740349054336548
14-07-1992,3.390625,3.390625,627200,3.625,3.578125,2.9187915325164795
15-07-1992,3.515625,3.59375,465600,3.609375,3.53125,2.880553960800171
16-07-1992,3.390625,3.5,143200,3.5,3.421875,2.7913336753845215
17-07-1992,3.421875,3.4375,45600,3.453125,3.4375,2.804079532623291
20-07-1992,3.390625,3.4375,645600,3.453125,3.390625,2.765840768814087
21-07-1992,3.390625,3.390625,224000,3.421875,3.40625,2.7785890102386475
22-07-1992,3.40625,3.40625,235200,3.484375,3.484375,2.8423144817352295
23-07-1992,3.46875,3.5,112000,3.515625,3.5,2.855062246322632
24-07-1992,3.5,3.5,329600,3.609375,3.609375,2.9442830085754395
27-07-1992,3.5625,3.609375,66400,3.609375,3.59375,2.931536912918091
28-07-1992,3.53125,3.59375,91200,3.59375,3.5625,2.9060444831848145
29-07-1992,3.546875,3.5625,84800,3.578125,3.578125,2.9187915325164795
30-07-1992,3.5625,3.5625,565600,3.640625,3.640625,2.969774007797241
31-07-1992,3.625,3.640625,500800,3.65625,3.640625,2.969774007797241
03-08-1992,3.625,3.625,492000,3.703125,3.703125,3.0207576751708984
04-08-1992,3.6875,3.6875,398400,3.71875,3.71875,3.0335028171539307
05-08-1992,3.375,3.59375,268800,3.59375,3.40625,2.7785890102386475
06-08-1992,3.171875,3.25,1166400,3.265625,3.25,2.6511290073394775
07-08-1992,3.25,3.25,996000,3.515625,3.515625,2.8678088188171387
10-08-1992,3.5,3.515625,88000,3.5625,3.546875,2.8932993412017822
11-08-1992,3.546875,3.546875,2608000,3.5625,3.546875,2.8932993412017822
12-08-1992,3.5625,3.5625,92800,3.59375,3.59375,2.931536912918091
13-08-1992,3.609375,3.625,684800,3.734375,3.734375,3.0462489128112793
14-08-1992,3.734375,3.78125,1344000,3.84375,3.75,3.0589966773986816
17-08-1992,3.671875,3.71875,1498400,3.71875,3.6875,3.008012294769287
18-08-1992,3.578125,3.671875,823200,3.6875,3.59375,2.931536912918091
19-08-1992,3.5,3.5,844800,3.6875,3.5625,2.9060444831848145
20-08-1992,3.5625,3.625,7611200,3.640625,3.59375,2.931536912918091
21-08-1992,3.59375,3.609375,1631200,3.640625,3.59375,2.931536912918091
24-08-1992,3.578125,3.578125,1412000,3.609375,3.578125,2.9187915325164795
25-08-1992,3.578125,3.578125,1002400,3.71875,3.671875,2.9952657222747803
26-08-1992,3.6875,3.6875,1988000,3.75,3.75,3.0589966773986816
27-08-1992,3.71875,3.734375,872800,3.796875,3.78125,3.0844874382019043
28-08-1992,3.8125,3.8125,1732800,3.9375,3.9375,3.211944580078125
31-08-1992,3.84375,3.90625,1392800,3.984375,3.875,3.160961866378784
01-09-1992,3.859375,3.875,740000,3.9375,3.90625,3.186453342437744
02-09-1992,3.875,3.9375,458400,3.953125,3.890625,3.173707962036133
03-09-1992,3.890625,3.90625,617600,3.921875,3.921875,3.1991982460021973
04-09-1992,3.921875,3.921875,190400,3.96875,3.953125,3.2246909141540527
08-09-1992,3.953125,3.953125,1150400,4.09375,4.078125,3.3266570568084717
09-09-1992,4.0625,4.078125,660000,4.09375,4.09375,3.3394036293029785
10-09-1992,4.0625,4.09375,809600,4.109375,4.078125,3.3266570568084717
11-09-1992,4.0625,4.078125,549600,4.109375,4.109375,3.3521502017974854
14-09-1992,4.109375,4.140625,684000,4.171875,4.125,3.3648948669433594
15-09-1992,4.109375,4.125,557600,4.140625,4.109375,3.3521502017974854
16-09-1992,4.09375,4.109375,723200,4.171875,4.125,3.3648948669433594
17-09-1992,4.125,4.125,565600,4.28125,4.21875,3.4413704872131348
18-09-1992,4.1875,4.1875,668000,4.3125,4.3125,3.5178446769714355
21-09-1992,4.328125,4.328125,808000,4.34375,4.34375,3.5433363914489746
22-09-1992,4.296875,4.3125,662400,4.375,4.359375,3.556082248687744
23-09-1992,4.359375,4.375,898400,4.46875,4.375,3.5688300132751465
24-09-1992,4.390625,4.390625,1256800,4.484375,4.46875,3.645303249359131
25-09-1992,4.203125,4.421875,1837600,4.4375,4.25,3.4668617248535156
28-09-1992,4.109375,4.25,1749600,4.25,4.125,3.3648948669433594
29-09-1992,4.171875,4.203125,276800,4.234375,4.234375,3.4541175365448
30-09-1992,4.15625,4.21875,330400,4.234375,4.15625,3.390385389328003
01-10-1992,4.03125,4.140625,378400,4.140625,4.03125,3.2884202003479004
02-10-1992,4.015625,4.046875,772800,4.078125,4.046875,3.301165819168091
05-10-1992,3.953125,4.046875,312000,4.046875,3.96875,3.237436056137085
06-10-1992,3.90625,3.96875,885600,3.96875,3.9375,3.211944580078125
07-10-1992,3.953125,3.953125,649600,4.015625,3.984375,3.2501821517944336
08-10-1992,3.96875,3.96875,266400,4.0625,4.0,3.2680552005767822
09-10-1992,3.90625,3.96875,112000,4.03125,3.9375,3.2169923782348633
12-10-1992,3.9375,3.9375,351200,3.953125,3.953125,3.229757308959961
13-10-1992,3.890625,3.9375,412000,3.953125,3.9375,3.2169923782348633
14-10-1992,3.921875,3.9375,341600,3.953125,3.9375,3.2169923782348633
15-10-1992,3.90625,3.9375,205600,3.9375,3.90625,3.1914589405059814
16-10-1992,3.921875,3.921875,1151200,4.078125,4.0625,3.319115400314331
19-10-1992,4.0625,4.0625,756000,4.3125,4.28125,3.4978394508361816
20-10-1992,4.203125,4.265625,209600,4.265625,4.21875,3.4467759132385254
21-10-1992,4.140625,4.203125,104800,4.203125,4.15625,3.395712375640869
22-10-1992,3.953125,4.140625,365600,4.140625,3.953125,3.229757308959961
23-10-1992,3.9375,3.96875,101600,3.96875,3.953125,3.229757308959961
26-10-1992,3.953125,3.953125,396800,4.015625,4.0,3.2680552005767822
27-10-1992,3.8125,3.984375,318400,3.984375,3.859375,3.1531624794006348
28-10-1992,3.71875,3.859375,920800,3.859375,3.828125,3.127629280090332
29-10-1992,3.828125,3.828125,348000,3.90625,3.84375,3.1403965950012207
30-10-1992,3.8125,3.875,143200,3.875,3.8125,3.1148648262023926
02-11-1992,3.828125,3.828125,156800,3.875,3.875,3.1659281253814697
03-11-1992,3.75,3.875,296800,3.875,3.75,3.0638022422790527
04-11-1992,3.65625,3.765625,464000,3.78125,3.65625,2.987205982208252
05-11-1992,3.46875,3.625,1245600,3.625,3.484375,2.8467800617218018
06-11-1992,3.53125,3.53125,1823200,3.671875,3.65625,2.987205982208252
09-11-1992,3.5,3.625,1322400,3.65625,3.546875,2.8978447914123535
10-11-1992,3.5625,3.5625,1669600,3.625,3.625,2.9616737365722656
11-11-1992,3.5625,3.625,551200,3.625,3.5625,2.910611867904663
12-11-1992,3.5625,3.625,1320800,3.640625,3.578125,2.9233758449554443
13-11-1992,3.59375,3.609375,324000,3.640625,3.625,2.9616737365722656
16-11-1992,3.609375,3.609375,257600,3.65625,3.65625,2.987205982208252
17-11-1992,3.625,3.625,304000,3.640625,3.625,2.9616737365722656
18-11-1992,3.625,3.625,693600,3.640625,3.640625,2.9744415283203125
19-11-1992,3.46875,3.609375,821600,3.640625,3.5,2.8595468997955322
20-11-1992,3.53125,3.53125,536800,3.59375,3.59375,2.936143636703491
23-11-1992,3.5625,3.5625,660000,3.671875,3.625,2.9616737365722656
24-11-1992,3.578125,3.609375,503200,3.609375,3.59375,2.936143636703491
25-11-1992,3.578125,3.578125,96000,3.609375,3.59375,2.936143636703491
27-11-1992,3.578125,3.59375,230400,3.625,3.625,2.9616737365722656
30-11-1992,3.53125,3.625,539200,3.625,3.546875,2.8978447914123535
01-12-1992,3.53125,3.546875,1116800,3.546875,3.53125,2.8850789070129395
02-12-1992,3.53125,3.53125,721600,3.578125,3.578125,2.9233758449554443
03-12-1992,3.421875,3.5625,1191200,3.5625,3.4375,2.8084840774536133
04-12-1992,3.421875,3.4375,1249600,3.5,3.5,2.8595468997955322
07-12-1992,3.484375,3.484375,167200,3.546875,3.5,2.8595468997955322
08-12-1992,3.453125,3.5,580000,3.515625,3.484375,2.8467800617218018
09-12-1992,3.484375,3.5,374400,3.546875,3.53125,2.8850789070129395
10-12-1992,3.484375,3.546875,1601600,3.609375,3.609375,2.948909044265747
11-12-1992,3.65625,3.65625,151200,3.703125,3.671875,2.9999711513519287
14-12-1992,3.609375,3.671875,920000,3.671875,3.65625,2.987205982208252
15-12-1992,3.609375,3.640625,406400,3.640625,3.625,2.9616737365722656
16-12-1992,3.59375,3.609375,402400,3.625,3.59375,2.936143636703491
17-12-1992,3.5625,3.609375,52800,3.609375,3.5625,2.910611867904663
18-12-1992,3.578125,3.59375,295200,3.59375,3.59375,2.936143636703491
21-12-1992,3.546875,3.578125,488000,3.578125,3.546875,2.8978447914123535
22-12-1992,3.53125,3.5625,960800,3.5625,3.546875,2.8978447914123535
23-12-1992,3.515625,3.546875,1008000,3.546875,3.515625,2.872313976287842
24-12-1992,3.53125,3.546875,655200,3.59375,3.59375,2.936143636703491
28-12-1992,3.53125,3.578125,97600,3.578125,3.546875,2.8978447914123535
29-12-1992,3.53125,3.546875,596000,3.59375,3.5625,2.910611867904663
30-12-1992,3.546875,3.578125,639200,3.578125,3.546875,2.8978447914123535
31-12-1992,3.5625,3.5625,376000,3.6875,3.671875,2.9999711513519287
04-01-1993,3.609375,3.6875,597600,3.71875,3.609375,2.948909044265747
05-01-1993,3.578125,3.609375,715200,3.6875,3.6875,3.012737989425659
06-01-1993,3.59375,3.6875,928800,3.6875,3.609375,2.948909044265747
07-01-1993,3.5625,3.609375,333600,3.609375,3.578125,2.9233758449554443
08-01-1993,3.46875,3.578125,1617600,3.578125,3.46875,2.834016799926758
11-01-1993,3.375,3.484375,410400,3.484375,3.390625,2.7761895656585693
12-01-1993,3.359375,3.390625,269600,3.40625,3.40625,2.7889835834503174
13-01-1993,3.359375,3.40625,826400,3.484375,3.46875,2.8401575088500977
14-01-1993,3.34375,3.4375,619200,3.453125,3.34375,2.7378077507019043
15-01-1993,3.359375,3.375,1232800,3.421875,3.390625,2.7761895656585693
18-01-1993,3.359375,3.390625,460000,3.390625,3.375,2.7633965015411377
19-01-1993,3.359375,3.359375,1157600,3.484375,3.453125,2.827362537384033
20-01-1993,3.4375,3.453125,132800,3.484375,3.46875,2.8401575088500977
21-01-1993,3.4375,3.4375,272800,3.5,3.5,2.865743398666382
22-01-1993,3.5,3.515625,540800,3.59375,3.59375,2.9425055980682373
25-01-1993,3.578125,3.578125,969600,3.703125,3.6875,3.019266366958618
26-01-1993,3.78125,3.8125,1224000,3.875,3.78125,3.096027135848999
27-01-1993,3.703125,3.734375,636000,3.765625,3.75,3.070441722869873
28-01-1993,3.75,3.765625,773600,3.90625,3.90625,3.198373317718506
29-01-1993,3.890625,3.90625,492800,4.0,3.96875,3.249549627304077
01-02-1993,4.0,4.0,1876800,4.078125,4.0625,3.326308250427246
02-02-1993,4.046875,4.046875,1044000,4.09375,4.09375,3.351896047592163
03-02-1993,4.09375,4.09375,1448000,4.359375,4.296875,3.518212080001831
04-02-1993,4.328125,4.328125,1330400,4.4375,4.4375,3.6333541870117188
05-02-1993,4.4375,4.4375,1606400,4.515625,4.5,3.68452787399292
08-02-1993,4.46875,4.5,1975200,4.5,4.5,3.68452787399292
09-02-1993,4.40625,4.5,756000,4.5,4.421875,3.620560884475708
10-02-1993,4.359375,4.421875,800000,4.453125,4.375,3.5821802616119385
11-02-1993,4.359375,4.359375,971200,4.5,4.484375,3.6717350482940674
12-02-1993,4.46875,4.484375,932000,4.484375,4.484375,3.6717350482940674
16-02-1993,4.34375,4.46875,292800,4.46875,4.34375,3.556593179702759
17-02-1993,4.34375,4.359375,632800,4.40625,4.390625,3.5949745178222656
18-02-1993,4.421875,4.421875,604800,4.484375,4.4375,3.6333541870117188
19-02-1993,4.421875,4.4375,3408800,4.515625,4.5,3.68452787399292
22-02-1993,4.5,4.5,1140000,4.609375,4.5625,3.7357027530670166
23-02-1993,4.5,4.59375,664000,4.59375,4.546875,3.722907304763794
24-02-1993,4.46875,4.515625,499200,4.515625,4.484375,3.6717350482940674
25-02-1993,4.359375,4.484375,259200,4.484375,4.359375,3.5693869590759277
26-02-1993,4.359375,4.390625,128000,4.421875,4.40625,3.6077654361724854
01-03-1993,4.421875,4.4375,1396000,4.53125,4.4375,3.6333541870117188
02-03-1993,4.4375,4.46875,332800,4.484375,4.453125,3.646146535873413
03-03-1993,4.46875,4.46875,4088800,4.84375,4.78125,3.914808750152588
04-03-1993,4.640625,4.75,913600,4.78125,4.734375,3.8764286041259766
05-03-1993,4.6875,4.71875,335200,4.734375,4.6875,3.8380484580993652
08-03-1993,4.703125,4.703125,472000,4.796875,4.78125,3.914808750152588
09-03-1993,4.75,4.796875,324000,4.796875,4.78125,3.914808750152588
10-03-1993,4.734375,4.78125,199200,4.8125,4.8125,3.9403953552246094
11-03-1993,4.796875,4.8125,213600,4.921875,4.890625,4.00436544418335
12-03-1993,4.796875,4.921875,702400,4.921875,4.84375,3.96598482131958
15-03-1993,4.84375,4.84375,209600,4.875,4.875,3.9915688037872314
16-03-1993,4.84375,4.859375,316800,4.875,4.859375,3.978778600692749
17-03-1993,4.859375,4.875,136800,4.984375,4.984375,4.081124782562256
18-03-1993,4.921875,4.96875,444000,5.0,5.0,4.093918800354004
19-03-1993,4.96875,4.984375,300800,5.0,4.96875,4.06833028793335
22-03-1993,4.96875,4.984375,640800,5.0,4.984375,4.081124782562256
23-03-1993,4.96875,5.015625,100800,5.015625,4.96875,4.06833028793335
24-03-1993,4.96875,4.96875,574400,5.078125,4.96875,4.06833028793335
25-03-1993,4.84375,4.90625,1020000,4.921875,4.84375,3.96598482131958
26-03-1993,4.8125,4.84375,753600,4.921875,4.90625,4.017158508300781
29-03-1993,4.921875,4.921875,589600,4.984375,4.984375,4.081124782562256
30-03-1993,5.0,5.0,663200,5.03125,5.03125,4.119505882263184
31-03-1993,4.96875,5.03125,558400,5.03125,5.015625,4.106713771820068
01-04-1993,4.984375,5.03125,537600,5.03125,5.0,4.093918800354004
02-04-1993,4.859375,4.953125,240800,4.953125,4.890625,4.00436544418335
05-04-1993,4.875,4.90625,292800,4.90625,4.90625,4.017158508300781
06-04-1993,4.875,4.90625,604800,4.90625,4.875,3.9915688037872314
07-04-1993,4.8125,4.84375,860000,4.875,4.875,3.9915688037872314
08-04-1993,4.859375,4.859375,24000,4.875,4.875,3.9977195262908936
12-04-1993,4.859375,4.859375,325600,4.96875,4.96875,4.074599266052246
13-04-1993,4.84375,4.96875,1076800,5.03125,4.875,3.9977195262908936
14-04-1993,4.84375,4.890625,447200,4.890625,4.84375,3.9720966815948486
15-04-1993,4.8125,4.875,231200,4.921875,4.8125,3.9464681148529053
16-04-1993,4.796875,4.828125,356800,4.84375,4.84375,3.9720966815948486
19-04-1993,4.828125,4.828125,173600,4.890625,4.875,3.9977195262908936
20-04-1993,4.90625,4.90625,1133600,5.0625,4.984375,4.087414264678955
21-04-1993,4.875,5.015625,185600,5.015625,4.875,3.9977195262908936
22-04-1993,4.671875,4.84375,335200,4.84375,4.671875,3.8311498165130615
23-04-1993,4.46875,4.671875,786400,4.671875,4.5,3.6902053356170654
26-04-1993,4.515625,4.53125,367200,4.640625,4.625,3.7927114963531494
27-04-1993,4.625,4.65625,108000,4.65625,4.640625,3.8055243492126465
28-04-1993,4.625,4.625,189600,4.640625,4.640625,3.8055243492126465
29-04-1993,4.625,4.65625,383200,4.75,4.75,3.895216703414917
30-04-1993,4.75,4.75,779200,4.96875,4.921875,4.036158561706543
03-05-1993,4.953125,4.953125,249600,4.984375,4.953125,4.061789035797119
04-05-1993,4.90625,4.921875,1332800,4.953125,4.921875,4.036158561706543
05-05-1993,4.921875,4.921875,65600,4.9375,4.921875,4.036158561706543
06-05-1993,4.921875,4.921875,664800,5.0,4.9375,4.048973560333252
07-05-1993,4.90625,4.921875,186400,4.96875,4.921875,4.036158561706543
10-05-1993,4.8125,4.9375,828000,4.9375,4.8125,3.9464681148529053
11-05-1993,4.78125,4.78125,1120800,4.953125,4.9375,4.048973560333252
12-05-1993,4.90625,4.9375,852000,4.984375,4.953125,4.061789035797119
13-05-1993,4.90625,4.90625,702400,5.09375,5.0625,4.1514763832092285
14-05-1993,5.0625,5.0625,931200,5.265625,5.171875,4.241173267364502
17-05-1993,5.15625,5.171875,390400,5.203125,5.203125,4.266799449920654
18-05-1993,5.203125,5.203125,340800,5.328125,5.296875,4.3436808586120605
19-05-1993,5.1875,5.3125,412800,5.3125,5.234375,4.29242467880249
20-05-1993,5.21875,5.21875,216000,5.25,5.234375,4.29242467880249
21-05-1993,5.203125,5.234375,400000,5.234375,5.21875,4.279611110687256
24-05-1993,5.21875,5.25,496000,5.25,5.234375,4.29242467880249
25-05-1993,5.171875,5.1875,400800,5.25,5.1875,4.253986358642578
26-05-1993,5.15625,5.1875,188000,5.203125,5.203125,4.266799449920654
27-05-1993,5.203125,5.203125,511200,5.3125,5.3125,4.356492519378662
28-05-1993,5.28125,5.296875,473600,5.3125,5.3125,4.356492519378662
01-06-1993,5.328125,5.34375,619200,5.4375,5.40625,4.433371067047119
02-06-1993,5.40625,5.40625,522400,5.625,5.5625,4.561500549316406
03-06-1993,5.484375,5.5625,403200,5.5625,5.515625,4.5230631828308105
04-06-1993,5.484375,5.5,889600,5.515625,5.5,4.510250568389893
07-06-1993,5.484375,5.5,482400,5.515625,5.5,4.510250568389893
08-06-1993,5.421875,5.484375,277600,5.484375,5.4375,4.458996295928955
09-06-1993,5.40625,5.40625,262400,5.5,5.5,4.510250568389893
10-06-1993,5.4375,5.484375,779200,5.484375,5.4375,4.458996295928955
11-06-1993,5.234375,5.40625,606400,5.40625,5.234375,4.29242467880249
14-06-1993,5.125,5.21875,763200,5.21875,5.125,4.202733516693115
15-06-1993,5.125,5.125,288800,5.15625,5.125,4.202733516693115
16-06-1993,5.140625,5.140625,219200,5.203125,5.203125,4.266799449920654
17-06-1993,5.21875,5.21875,193600,5.328125,5.25,4.305238723754883
18-06-1993,5.265625,5.28125,224800,5.296875,5.265625,4.318051338195801
21-06-1993,5.28125,5.28125,292800,5.359375,5.34375,4.3821187019348145
22-06-1993,5.265625,5.34375,1112000,5.34375,5.265625,4.318051338195801
23-06-1993,5.265625,5.265625,2466400,5.296875,5.296875,4.3436808586120605
24-06-1993,5.0625,5.296875,637600,5.296875,5.125,4.202733516693115
25-06-1993,5.109375,5.125,36000,5.125,5.125,4.202733516693115
28-06-1993,5.125,5.125,204800,5.140625,5.140625,4.21554708480835
29-06-1993,4.984375,5.109375,648000,5.125,5.046875,4.138668537139893
30-06-1993,5.03125,5.0625,552000,5.09375,5.09375,4.177105903625488
01-07-1993,5.015625,5.078125,376800,5.078125,5.046875,4.138668537139893
02-07-1993,5.015625,5.0625,100000,5.0625,5.046875,4.138668537139893
06-07-1993,5.0,5.046875,437600,5.09375,5.0,4.100225925445557
07-07-1993,4.96875,4.96875,1369600,5.078125,5.078125,4.1642937660217285
08-07-1993,5.078125,5.078125,955200,5.1875,5.1875,4.253986358642578
09-07-1993,5.171875,5.171875,1352000,5.25,5.25,4.311472415924072
12-07-1993,5.28125,5.28125,900000,5.34375,5.3125,4.362800598144531
13-07-1993,5.28125,5.3125,100000,5.3125,5.28125,4.337134838104248
14-07-1993,5.28125,5.28125,538400,5.3125,5.28125,4.337134838104248
15-07-1993,5.21875,5.3125,338400,5.3125,5.25,4.311472415924072
16-07-1993,5.234375,5.25,147200,5.265625,5.25,4.311472415924072
19-07-1993,5.25,5.296875,417600,5.296875,5.28125,4.337134838104248
20-07-1993,5.25,5.25,713600,5.3125,5.3125,4.362800598144531
21-07-1993,5.3125,5.3125,395200,5.34375,5.3125,4.362800598144531
22-07-1993,5.28125,5.3125,314400,5.3125,5.296875,4.349964618682861
23-07-1993,5.25,5.296875,341600,5.3125,5.3125,4.362800598144531
26-07-1993,5.296875,5.34375,196000,5.34375,5.296875,4.349964618682861
27-07-1993,5.21875,5.265625,191200,5.28125,5.25,4.311472415924072
28-07-1993,5.234375,5.25,356800,5.296875,5.265625,4.32430362701416
29-07-1993,5.25,5.265625,98400,5.3125,5.296875,4.349964618682861
30-07-1993,5.3125,5.3125,57600,5.328125,5.328125,4.375631809234619
02-08-1993,5.3125,5.328125,1029600,5.46875,5.46875,4.491116523742676
03-08-1993,5.484375,5.484375,356000,5.578125,5.5625,4.568108558654785
04-08-1993,5.546875,5.546875,400000,5.65625,5.625,4.6194329261779785
05-08-1993,5.609375,5.609375,56000,5.640625,5.625,4.6194329261779785
06-08-1993,5.578125,5.625,348800,5.625,5.59375,4.593771457672119
09-08-1993,5.609375,5.609375,344800,5.6875,5.6875,4.6707658767700195
10-08-1993,5.6875,5.6875,632800,5.75,5.75,4.722092628479004
11-08-1993,5.78125,5.78125,784800,6.0,6.0,4.927396297454834
12-08-1993,5.984375,6.0,1103200,6.21875,6.015625,4.940229415893555
13-08-1993,5.9375,6.03125,226400,6.03125,5.9375,4.876069068908691
16-08-1993,5.9375,5.9375,448000,5.984375,5.984375,4.914564609527588
17-08-1993,6.0625,6.0625,640000,6.25,6.25,5.132704257965088
18-08-1993,6.234375,6.234375,805600,6.484375,6.421875,5.273854732513428
19-08-1993,6.3125,6.4375,424000,6.46875,6.3125,5.184032440185547
20-08-1993,6.3125,6.3125,914400,6.453125,6.453125,5.2995195388793945
23-08-1993,6.453125,6.46875,964800,6.703125,6.703125,5.504825115203857
24-08-1993,6.53125,6.703125,704000,6.703125,6.5625,5.389340877532959
25-08-1993,6.4375,6.5625,753600,6.578125,6.453125,5.2995195388793945
26-08-1993,6.25,6.453125,817600,6.453125,6.296875,5.171201229095459
27-08-1993,6.03125,6.28125,627200,6.28125,6.125,5.030050277709961
30-08-1993,6.109375,6.125,529600,6.25,6.21875,5.10704231262207
31-08-1993,6.171875,6.234375,888000,6.328125,6.28125,5.15836763381958
01-09-1993,6.28125,6.28125,388800,6.390625,6.375,5.235357761383057
02-09-1993,6.28125,6.375,286400,6.375,6.28125,5.15836763381958
03-09-1993,6.28125,6.28125,135200,6.328125,6.296875,5.171201229095459
07-09-1993,6.125,6.296875,236800,6.328125,6.125,5.030050277709961
08-09-1993,5.953125,6.125,388800,6.125,5.953125,4.888899326324463
09-09-1993,5.921875,5.953125,533600,5.984375,5.96875,4.901733875274658
10-09-1993,5.953125,5.96875,121600,5.984375,5.984375,4.914564609527588
13-09-1993,5.921875,5.984375,472800,6.03125,5.921875,4.86323881149292
14-09-1993,5.90625,5.953125,633600,5.96875,5.9375,4.876069068908691
15-09-1993,5.921875,5.9375,994400,6.046875,6.0,4.927396297454834
16-09-1993,6.0,6.0,152800,6.03125,6.0,4.927396297454834
17-09-1993,5.890625,5.96875,127200,5.96875,5.9375,4.876069068908691
20-09-1993,5.9375,5.9375,248000,5.96875,5.96875,4.901733875274658
21-09-1993,5.96875,5.96875,218400,6.03125,6.015625,4.940229415893555
22-09-1993,5.96875,6.0,99200,6.03125,5.96875,4.901733875274658
23-09-1993,5.953125,5.984375,232800,5.984375,5.984375,4.914564609527588
24-09-1993,5.953125,5.96875,357600,6.0,5.96875,4.901733875274658
27-09-1993,5.953125,5.953125,441600,6.0,5.984375,4.914564609527588
28-09-1993,5.921875,5.984375,326400,5.984375,5.9375,4.876069068908691
29-09-1993,5.9375,5.9375,1200800,6.453125,6.453125,5.2995195388793945
30-09-1993,6.453125,6.453125,755200,6.625,6.625,5.440667629241943
01-10-1993,6.59375,6.59375,599200,6.71875,6.71875,5.517658710479736
04-10-1993,6.640625,6.71875,248000,6.75,6.640625,5.4535017013549805
05-10-1993,6.578125,6.65625,122400,6.65625,6.578125,5.402172565460205
06-10-1993,6.5,6.578125,114400,6.578125,6.53125,5.363677501678467
07-10-1993,6.4375,6.5,224000,6.5,6.484375,5.325181007385254
08-10-1993,6.40625,6.484375,245600,6.484375,6.421875,5.279961109161377
11-10-1993,6.25,6.421875,288000,6.421875,6.25,5.138646602630615
12-10-1993,6.125,6.25,272800,6.25,6.125,5.035876274108887
13-10-1993,5.96875,6.078125,826400,6.109375,5.984375,4.920256614685059
14-10-1993,6.0,6.09375,388000,6.125,6.03125,4.958795547485352
15-10-1993,5.828125,6.0,707200,6.0,5.875,4.830329418182373
18-10-1993,5.71875,5.875,719200,5.875,5.75,4.727559566497803
19-10-1993,5.484375,5.75,1467200,5.875,5.828125,4.79179048538208
20-10-1993,5.3125,5.796875,1626400,5.796875,5.3125,4.367851734161377
21-10-1993,5.4375,5.4375,3216000,5.6875,5.5,4.522010803222656
22-10-1993,5.375,5.5,928800,5.5,5.375,4.419239044189453
25-10-1993,5.28125,5.375,901600,5.421875,5.28125,4.342157363891602
26-10-1993,5.0,5.28125,1536800,5.3125,5.03125,4.136610984802246
27-10-1993,5.0625,5.0625,1416000,5.1875,5.1875,4.265077114105225
28-10-1993,5.1875,5.1875,1215200,5.453125,5.453125,4.483470916748047
29-10-1993,5.328125,5.421875,412800,5.46875,5.34375,4.393544673919678
01-11-1993,5.34375,5.359375,379200,5.484375,5.453125,4.483470916748047
02-11-1993,5.453125,5.453125,553600,5.578125,5.5625,4.573397159576416
03-11-1993,5.578125,5.609375,540800,5.671875,5.625,4.624783515930176
04-11-1993,5.625,5.65625,345600,5.734375,5.625,4.624783515930176
05-11-1993,5.53125,5.625,112800,5.625,5.5625,4.573397159576416
08-11-1993,5.46875,5.5625,207200,5.5625,5.46875,4.496318817138672
09-11-1993,5.1875,5.46875,542400,5.46875,5.21875,4.290771007537842
10-11-1993,5.21875,5.25,191200,5.28125,5.265625,4.329310417175293
11-11-1993,5.203125,5.28125,564800,5.40625,5.21875,4.290771007537842
12-11-1993,5.0625,5.203125,1202400,5.203125,5.203125,4.277924060821533
15-11-1993,5.140625,5.203125,675200,5.234375,5.140625,4.226537704467773
16-11-1993,4.875,4.96875,827200,4.984375,4.9375,4.05953311920166
17-11-1993,4.9375,5.0,1617600,5.203125,5.203125,4.277924060821533
18-11-1993,5.15625,5.203125,463200,5.359375,5.296875,4.355001926422119
19-11-1993,5.21875,5.25,85600,5.265625,5.265625,4.329310417175293
22-11-1993,5.078125,5.25,173600,5.25,5.078125,4.17515230178833
23-11-1993,5.078125,5.109375,697600,5.21875,5.09375,4.187999248504639
24-11-1993,5.109375,5.109375,556800,5.15625,5.15625,4.239382743835449
26-11-1993,5.03125,5.125,94400,5.125,5.03125,4.136610984802246
29-11-1993,4.828125,4.96875,1270400,4.96875,4.828125,3.969604730606079
30-11-1993,4.78125,4.84375,457600,4.859375,4.828125,3.969604730606079
01-12-1993,4.828125,4.859375,316000,4.921875,4.859375,3.9952993392944336
02-12-1993,4.84375,4.84375,429600,4.90625,4.859375,3.9952993392944336
03-12-1993,4.875,4.875,142400,4.90625,4.875,4.008144855499268
06-12-1993,4.84375,4.875,308800,4.90625,4.890625,4.020993232727051
07-12-1993,4.859375,4.875,528800,4.953125,4.90625,4.033838272094727
08-12-1993,4.84375,4.890625,89600,4.890625,4.859375,3.9952993392944336
09-12-1993,4.71875,4.859375,69600,4.859375,4.78125,3.931067705154419
10-12-1993,4.796875,4.796875,271200,4.84375,4.828125,3.969604730606079
13-12-1993,4.71875,4.859375,102400,4.859375,4.765625,3.918219566345215
14-12-1993,4.734375,4.796875,620800,4.8125,4.8125,3.956758975982666
15-12-1993,4.71875,4.765625,128000,4.765625,4.734375,3.892526865005493
16-12-1993,4.75,4.75,565600,4.84375,4.78125,3.931067705154419
17-12-1993,4.734375,4.796875,200800,4.8125,4.75,3.9053730964660645
20-12-1993,4.40625,4.71875,927200,4.71875,4.515625,3.7126734256744385
21-12-1993,4.265625,4.546875,880000,4.546875,4.4375,3.6484391689300537
22-12-1993,4.40625,4.453125,676000,4.75,4.734375,3.892526865005493
23-12-1993,4.703125,4.703125,176000,4.796875,4.75,3.9053730964660645
27-12-1993,4.6875,4.6875,1060000,4.890625,4.859375,3.9952993392944336
28-12-1993,4.8125,4.890625,629600,4.921875,4.8125,3.956758975982666
29-12-1993,4.828125,4.828125,648000,4.890625,4.859375,3.9952993392944336
30-12-1993,4.828125,4.84375,270400,4.859375,4.859375,3.9952993392944336
31-12-1993,4.828125,4.859375,112800,4.875,4.875,4.008144855499268
03-01-1994,4.828125,4.875,332000,4.875,4.875,4.008144855499268
04-01-1994,4.84375,4.84375,202400,4.890625,4.890625,4.020993232727051
05-01-1994,4.96875,4.96875,800000,5.25,5.203125,4.277924060821533
06-01-1994,5.234375,5.234375,999200,5.484375,5.453125,4.483470916748047
07-01-1994,5.40625,5.46875,704800,5.46875,5.4375,4.470623016357422
10-01-1994,5.421875,5.421875,573600,5.640625,5.640625,4.64403772354126
11-01-1994,5.453125,5.59375,1028800,5.59375,5.5,4.528256893157959
12-01-1994,5.390625,5.5,296000,5.53125,5.40625,4.451069355010986
13-01-1994,5.3125,5.40625,10779200,5.421875,5.3125,4.373884677886963
14-01-1994,5.15625,5.28125,1295200,5.328125,5.15625,4.245238780975342
17-01-1994,5.21875,5.25,1098400,5.3125,5.296875,4.361019611358643
18-01-1994,5.3125,5.3125,851200,5.4375,5.4375,4.476799488067627
19-01-1994,5.46875,5.46875,1249600,5.609375,5.515625,4.541120529174805
20-01-1994,5.359375,5.515625,487200,5.5625,5.359375,4.412476539611816
21-01-1994,5.34375,5.390625,354400,5.421875,5.375,4.425342082977295
24-01-1994,5.3125,5.390625,408800,5.40625,5.3125,4.373884677886963
25-01-1994,5.296875,5.3125,284000,5.328125,5.3125,4.373884677886963
26-01-1994,5.265625,5.3125,873600,5.40625,5.375,4.425342082977295
27-01-1994,5.375,5.375,1322400,5.5625,5.546875,4.566850662231445
28-01-1994,5.484375,5.5,303200,5.515625,5.5,4.528256893157959
31-01-1994,5.515625,5.53125,787200,5.671875,5.515625,4.541120529174805
01-02-1994,5.546875,5.546875,700800,5.625,5.609375,4.618309020996094
02-02-1994,5.578125,5.578125,999200,5.9375,5.765625,4.746951103210449
03-02-1994,5.734375,5.8125,155200,5.8125,5.75,4.73408842086792
04-02-1994,5.703125,5.78125,1171200,5.828125,5.71875,4.708355903625488
07-02-1994,5.609375,5.671875,363200,5.671875,5.625,4.631173133850098
08-02-1994,5.59375,5.625,355200,5.75,5.734375,4.721223831176758
09-02-1994,5.59375,5.734375,272800,5.734375,5.65625,4.656899929046631
10-02-1994,5.5,5.65625,944800,5.65625,5.5,4.528256893157959
11-02-1994,5.5,5.53125,212800,5.71875,5.6875,4.6826300621032715
14-02-1994,5.40625,5.6875,335200,5.6875,5.5,4.528256893157959
15-02-1994,5.46875,5.46875,137600,5.53125,5.5,4.528256893157959
16-02-1994,5.375,5.46875,541600,5.484375,5.375,4.425342082977295
17-02-1994,5.34375,5.390625,538400,5.46875,5.34375,4.399613380432129
18-02-1994,5.328125,5.375,437600,5.390625,5.34375,4.399613380432129
22-02-1994,5.359375,5.375,83200,5.40625,5.375,4.425342082977295
23-02-1994,5.34375,5.34375,152000,5.4375,5.421875,4.463935375213623
24-02-1994,5.375,5.421875,108800,5.4375,5.4375,4.476799488067627
25-02-1994,5.46875,5.5,848800,5.5625,5.46875,4.502528667449951
28-02-1994,5.375,5.46875,57600,5.46875,5.375,4.425342082977295
01-03-1994,5.34375,5.40625,180000,5.40625,5.375,4.425342082977295
02-03-1994,5.28125,5.34375,310400,5.34375,5.3125,4.373884677886963
03-03-1994,5.296875,5.328125,92800,5.34375,5.3125,4.373884677886963
04-03-1994,5.296875,5.296875,196800,5.40625,5.390625,4.438207149505615
07-03-1994,5.34375,5.40625,268800,5.40625,5.34375,4.399613380432129
08-03-1994,5.234375,5.3125,516800,5.328125,5.234375,4.309563159942627
09-03-1994,4.96875,5.203125,609600,5.203125,5.03125,4.142324447631836
10-03-1994,4.921875,5.015625,894400,5.046875,4.9375,4.065140247344971
11-03-1994,4.921875,4.953125,410400,5.03125,5.015625,4.129461288452148
14-03-1994,5.015625,5.015625,308800,5.1875,5.171875,4.258101940155029
15-03-1994,5.21875,5.21875,446400,5.328125,5.28125,4.348153591156006
16-03-1994,5.25,5.265625,458400,5.296875,5.28125,4.348153591156006
17-03-1994,5.265625,5.265625,423200,5.515625,5.484375,4.5153913497924805
18-03-1994,5.5,5.53125,879200,5.6875,5.6875,4.6826300621032715
21-03-1994,5.671875,5.71875,813600,5.734375,5.71875,4.708355903625488
22-03-1994,5.6875,5.6875,1078400,5.8125,5.796875,4.772679328918457
23-03-1994,5.625,5.6875,722400,5.6875,5.671875,4.669764041900635
24-03-1994,5.5625,5.59375,674400,5.65625,5.625,4.631173133850098
25-03-1994,5.609375,5.609375,510400,5.671875,5.625,4.631173133850098
28-03-1994,5.4375,5.609375,1590400,5.609375,5.4375,4.476799488067627
29-03-1994,5.25,5.421875,617600,5.421875,5.25,4.322425365447998
30-03-1994,5.109375,5.234375,567200,5.328125,5.3125,4.373884677886963
31-03-1994,5.265625,5.3125,148800,5.34375,5.34375,4.399613380432129
04-04-1994,5.25,5.3125,445600,5.3125,5.265625,4.335290431976318
05-04-1994,5.234375,5.28125,940000,5.328125,5.25,4.322425365447998
06-04-1994,5.21875,5.3125,240000,5.375,5.375,4.425342082977295
07-04-1994,5.34375,5.375,574400,5.4375,5.34375,4.399613380432129
08-04-1994,5.3125,5.328125,169600,5.34375,5.34375,4.399613380432129
11-04-1994,5.265625,5.3125,698400,5.3125,5.296875,4.367146968841553
12-04-1994,5.3125,5.3125,1101600,5.40625,5.375,4.431563854217529
13-04-1994,5.359375,5.375,604000,5.4375,5.4375,4.483090877532959
14-04-1994,5.359375,5.390625,1280800,5.53125,5.53125,4.560385704040527
15-04-1994,5.46875,5.53125,826400,5.875,5.875,4.843801975250244
18-04-1994,5.6875,5.8125,1331200,5.8125,5.796875,4.779388904571533
19-04-1994,5.734375,5.78125,704000,5.8125,5.734375,4.72785758972168
20-04-1994,5.703125,5.71875,727200,5.71875,5.71875,4.714975833892822
21-04-1994,5.703125,5.703125,480000,5.765625,5.75,4.740739822387695
22-04-1994,5.71875,5.734375,332000,5.796875,5.765625,4.753624439239502
25-04-1994,5.734375,5.765625,498400,5.9375,5.9375,4.895329475402832
26-04-1994,5.9375,5.9375,1096000,5.96875,5.96875,4.921093940734863
28-04-1994,5.9375,5.953125,856800,6.015625,5.953125,4.9082136154174805
29-04-1994,5.890625,5.9375,535200,5.9375,5.9375,4.895329475402832
02-05-1994,5.890625,5.90625,652000,5.953125,5.953125,4.9082136154174805
03-05-1994,5.859375,5.9375,560800,5.9375,5.875,4.843801975250244
04-05-1994,5.875,5.875,358400,5.9375,5.9375,4.895329475402832
05-05-1994,5.921875,5.96875,66400,5.96875,5.921875,4.882445812225342
06-05-1994,5.921875,5.921875,343200,6.125,6.09375,5.024153709411621
09-05-1994,6.03125,6.109375,453600,6.109375,6.078125,5.01127290725708
10-05-1994,6.09375,6.140625,632800,6.140625,6.09375,5.024153709411621
11-05-1994,6.03125,6.09375,187200,6.109375,6.03125,4.972624778747559
12-05-1994,6.03125,6.046875,806400,6.15625,6.140625,5.062801361083984
13-05-1994,6.109375,6.109375,257600,6.125,6.125,5.049920082092285
16-05-1994,6.109375,6.140625,293600,6.140625,6.109375,5.0370378494262695
17-05-1994,5.890625,6.09375,1044000,6.09375,5.953125,4.9082136154174805
18-05-1994,5.90625,5.96875,1417600,5.984375,5.96875,4.921093940734863
19-05-1994,5.890625,5.984375,205600,5.984375,5.890625,4.856681823730469
20-05-1994,5.8125,5.90625,309600,5.90625,5.828125,4.805150985717773
23-05-1994,5.765625,5.796875,208800,5.8125,5.765625,4.753624439239502
24-05-1994,5.703125,5.75,287200,5.75,5.703125,4.702093601226807
25-05-1994,5.65625,5.71875,179200,5.71875,5.65625,4.663448333740234
26-05-1994,5.515625,5.59375,840800,5.625,5.546875,4.573268413543701
27-05-1994,5.53125,5.5625,70400,5.59375,5.578125,4.599032878875732
31-05-1994,5.5,5.546875,752800,5.578125,5.5,4.534623146057129
01-06-1994,5.5,5.5,480800,5.546875,5.515625,4.547502517700195
02-06-1994,5.46875,5.5,600000,5.53125,5.46875,4.5088582038879395
03-06-1994,5.34375,5.453125,136800,5.453125,5.421875,4.470210075378418
06-06-1994,5.453125,5.5,132800,5.5,5.46875,4.5088582038879395
07-06-1994,5.46875,5.46875,863200,5.578125,5.5625,4.5861496925354
08-06-1994,5.4375,5.5625,276800,5.5625,5.46875,4.5088582038879395
09-06-1994,5.375,5.4375,304800,5.4375,5.375,4.431563854217529
10-06-1994,5.375,5.375,165600,5.578125,5.578125,4.599032878875732
13-06-1994,5.578125,5.578125,736800,5.703125,5.6875,4.689208507537842
14-06-1994,5.703125,5.703125,476000,5.75,5.75,4.740739822387695
15-06-1994,5.71875,5.75,292000,5.78125,5.734375,4.72785758972168
16-06-1994,5.71875,5.71875,132000,5.78125,5.78125,4.766505241394043
17-06-1994,5.75,5.75,384000,5.90625,5.90625,4.869564533233643
20-06-1994,5.75,5.9375,174800,5.9375,5.84375,4.8180341720581055
21-06-1994,5.78125,5.78125,166400,5.90625,5.90625,4.869564533233643
22-06-1994,5.875,5.96875,52800,5.96875,5.90625,4.869564533233643
23-06-1994,5.75,5.96875,197200,5.96875,5.75,4.740739822387695
24-06-1994,5.59375,5.75,143200,5.75,5.71875,4.714975833892822
27-06-1994,5.625,5.6875,136800,5.75,5.71875,4.714975833892822
28-06-1994,5.59375,5.65625,190800,5.71875,5.71875,4.714975833892822
29-06-1994,5.65625,5.71875,94800,5.75,5.75,4.740739822387695
30-06-1994,5.59375,5.6875,440400,5.75,5.75,4.740739822387695
01-07-1994,5.625,5.75,150400,5.75,5.65625,4.663448333740234
05-07-1994,5.5,5.6875,72400,5.6875,5.5,4.534623146057129
06-07-1994,5.46875,5.5,182800,5.6875,5.6875,4.689208507537842
07-07-1994,5.59375,5.71875,36000,5.71875,5.59375,4.6119160652160645
08-07-1994,5.5,5.5625,24000,5.59375,5.5,4.534623146057129
11-07-1994,5.5,5.53125,51600,5.5625,5.5625,4.592413902282715
12-07-1994,5.5,5.5625,98800,5.59375,5.5625,4.592413902282715
13-07-1994,5.40625,5.59375,277200,5.65625,5.5,4.54081392288208
14-07-1994,5.4375,5.53125,72800,5.53125,5.4375,4.489212989807129
15-07-1994,5.34375,5.40625,68800,5.40625,5.375,4.437610626220703
18-07-1994,5.3125,5.4375,261600,5.46875,5.46875,4.515012741088867
19-07-1994,5.375,5.4375,143200,5.4375,5.375,4.437610626220703
20-07-1994,5.3125,5.40625,31600,5.40625,5.3125,4.386015892028809
21-07-1994,5.1875,5.1875,230800,5.34375,5.34375,4.411812782287598
22-07-1994,5.1875,5.3125,37600,5.3125,5.21875,4.308613300323486
25-07-1994,5.03125,5.25,187200,5.25,5.03125,4.153811931610107
26-07-1994,4.9375,5.0625,230000,5.0625,4.96875,4.102210521697998
27-07-1994,4.90625,5.0,551200,5.03125,4.9375,4.076413631439209
28-07-1994,4.9375,4.9375,342800,5.0,5.0,4.128012657165527
29-07-1994,4.96875,5.0,209600,5.0,4.96875,4.102210521697998
01-08-1994,4.9375,4.9375,620000,5.0,5.0,4.128012657165527
02-08-1994,4.9375,4.96875,216400,5.0,5.0,4.128012657165527
03-08-1994,4.90625,4.96875,430800,5.03125,5.0,4.128012657165527
04-08-1994,4.9375,4.96875,156400,5.0625,5.0,4.128012657165527
05-08-1994,4.78125,4.96875,233200,5.0,4.78125,3.94741153717041
08-08-1994,4.8125,4.84375,731600,4.90625,4.84375,3.9990131855010986
09-08-1994,4.78125,4.8125,1479200,5.0,5.0,4.128012657165527
10-08-1994,5.03125,5.0625,600000,5.125,5.0625,4.179612159729004
11-08-1994,4.96875,5.03125,326800,5.09375,4.96875,4.102210521697998
12-08-1994,4.9375,4.96875,558400,5.03125,5.0,4.128012657165527
15-08-1994,4.96875,5.0,71600,5.0625,4.96875,4.102210521697998
16-08-1994,4.9375,5.0,300800,5.0,4.9375,4.076413631439209
17-08-1994,4.90625,4.9375,148800,5.0,4.96875,4.102210521697998
18-08-1994,4.90625,4.96875,228400,4.96875,4.9375,4.076413631439209
19-08-1994,4.90625,4.9375,330400,4.953125,4.90625,4.050612449645996
22-08-1994,4.8125,4.9375,137200,4.9375,4.8125,3.9732086658477783
23-08-1994,4.78125,4.875,459200,4.90625,4.84375,3.9990131855010986
24-08-1994,4.875,4.875,956000,5.03125,4.9375,4.076413631439209
25-08-1994,4.75,4.96875,773200,4.96875,4.78125,3.94741153717041
26-08-1994,4.65625,4.8125,1071600,4.875,4.8125,3.9732086658477783
29-08-1994,4.625,4.875,1677600,4.875,4.71875,3.8958098888397217
30-08-1994,4.6875,4.71875,976800,4.8125,4.8125,3.9732086658477783
31-08-1994,4.75,4.8125,1103600,4.90625,4.8125,3.9732086658477783
01-09-1994,4.78125,4.78125,967600,4.875,4.84375,3.9990131855010986
02-09-1994,4.84375,4.90625,250400,4.9375,4.9375,4.076413631439209
06-09-1994,4.875,4.90625,397200,5.03125,5.03125,4.153811931610107
07-09-1994,5.0625,5.0625,1347600,5.25,5.1875,4.282812118530273
08-09-1994,5.125,5.125,1925200,5.4375,5.4375,4.489212989807129
09-09-1994,5.125,5.375,1384800,5.375,5.125,4.231211185455322
12-09-1994,5.125,5.1875,572800,5.21875,5.125,4.231211185455322
13-09-1994,5.125,5.15625,136400,5.1875,5.15625,4.257011890411377
14-09-1994,5.125,5.125,378800,5.25,5.25,4.334413051605225
15-09-1994,5.21875,5.25,1040800,5.3125,5.25,4.334413051605225
16-09-1994,5.25,5.28125,429600,5.375,5.375,4.437610626220703
19-09-1994,5.25,5.375,374400,5.375,5.25,4.334413051605225
20-09-1994,5.0,5.1875,248400,5.1875,5.125,4.231211185455322
21-09-1994,4.9375,5.125,303200,5.125,5.0,4.128012657165527
22-09-1994,5.0,5.0625,68000,5.0625,5.0,4.128012657165527
23-09-1994,5.0625,5.0625,456000,5.21875,5.1875,4.282812118530273
26-09-1994,5.15625,5.15625,168800,5.25,5.25,4.334413051605225
27-09-1994,5.15625,5.21875,271200,5.21875,5.1875,4.282812118530273
28-09-1994,5.15625,5.1875,45600,5.21875,5.15625,4.257011890411377
29-09-1994,5.125,5.1875,135200,5.1875,5.15625,4.257011890411377
30-09-1994,5.0625,5.1875,63600,5.1875,5.09375,4.205410957336426
03-10-1994,5.0625,5.09375,100000,5.125,5.0625,4.179612159729004
04-10-1994,4.96875,5.09375,256800,5.09375,4.96875,4.102210521697998
05-10-1994,4.96875,4.96875,100400,5.03125,5.03125,4.153811931610107
06-10-1994,5.03125,5.0625,187200,5.125,5.0625,4.179612159729004
07-10-1994,5.09375,5.09375,220000,5.3125,5.28125,4.36668062210083
10-10-1994,5.28125,5.28125,344000,5.375,5.3125,4.392523288726807
11-10-1994,5.3125,5.3125,328800,5.375,5.3125,4.392523288726807
12-10-1994,5.15625,5.25,155600,5.25,5.15625,4.263327598571777
13-10-1994,5.1875,5.21875,285600,5.28125,5.25,4.34084415435791
14-10-1994,5.1875,5.25,151200,5.25,5.25,4.34084415435791
17-10-1994,5.25,5.3125,88000,5.3125,5.25,4.34084415435791
18-10-1994,5.25,5.25,153200,5.375,5.375,4.444194316864014
19-10-1994,5.34375,5.34375,236000,5.4375,5.34375,4.41835880279541
20-10-1994,5.21875,5.3125,174000,5.34375,5.25,4.34084415435791
21-10-1994,5.1875,5.1875,66800,5.25,5.21875,4.315005779266357
24-10-1994,5.1875,5.25,72800,5.34375,5.3125,4.392523288726807
25-10-1994,5.1875,5.3125,243200,5.34375,5.25,4.34084415435791
26-10-1994,5.21875,5.25,512800,5.40625,5.40625,4.470033168792725
27-10-1994,5.375,5.375,1548800,5.625,5.53125,4.573389530181885
28-10-1994,5.46875,5.5,638000,5.6875,5.65625,4.676741600036621
31-10-1994,5.5,5.625,102000,5.625,5.53125,4.573389530181885
01-11-1994,5.46875,5.53125,71200,5.5625,5.5625,4.599227428436279
02-11-1994,5.4375,5.53125,349600,5.53125,5.46875,4.521711349487305
03-11-1994,5.46875,5.5,54000,5.5625,5.53125,4.573389530181885
04-11-1994,5.46875,5.46875,237600,5.53125,5.46875,4.521711349487305
07-11-1994,5.4375,5.5,145600,5.5,5.4375,4.495873928070068
08-11-1994,5.375,5.40625,126800,5.4375,5.40625,4.470033168792725
09-11-1994,5.4375,5.4375,328400,5.46875,5.4375,4.495873928070068
10-11-1994,5.4375,5.4375,60800,5.46875,5.4375,4.495873928070068
11-11-1994,5.34375,5.4375,80800,5.46875,5.34375,4.41835880279541
14-11-1994,5.21875,5.3125,125600,5.3125,5.25,4.34084415435791
15-11-1994,5.21875,5.25,166400,5.28125,5.28125,4.36668062210083
16-11-1994,5.15625,5.21875,154800,5.25,5.15625,4.263327598571777
17-11-1994,4.90625,5.09375,990400,5.09375,4.96875,4.108296871185303
18-11-1994,4.625,4.90625,1564800,4.90625,4.78125,3.953268051147461
21-11-1994,4.71875,4.8125,789600,4.84375,4.75,3.92742919921875
22-11-1994,4.625,4.6875,559600,4.71875,4.6875,3.8757541179656982
23-11-1994,4.5,4.71875,952400,4.71875,4.59375,3.79823899269104
25-11-1994,4.53125,4.5625,45600,4.59375,4.53125,3.746560573577881
28-11-1994,4.46875,4.59375,1295600,4.59375,4.53125,3.746560573577881
29-11-1994,4.46875,4.53125,1277200,4.625,4.59375,3.79823899269104
30-11-1994,4.53125,4.625,410400,4.625,4.53125,3.746560573577881
01-12-1994,4.5,4.53125,507600,4.65625,4.625,3.8240771293640137
02-12-1994,4.625,4.625,588000,4.6875,4.625,3.8240771293640137
05-12-1994,4.375,4.59375,1013600,4.65625,4.375,3.61736798286438
06-12-1994,4.375,4.375,664400,4.4375,4.375,3.61736798286438
07-12-1994,4.34375,4.375,218400,4.5625,4.5625,3.772400140762329
08-12-1994,4.53125,4.53125,552800,4.8125,4.6875,3.8757541179656982
09-12-1994,4.5625,4.625,588400,4.625,4.59375,3.79823899269104
12-12-1994,4.625,4.625,519200,4.6875,4.65625,3.849915027618408
13-12-1994,4.65625,4.65625,408000,4.78125,4.75,3.92742919921875
14-12-1994,4.78125,4.78125,529200,4.96875,4.9375,4.082461357116699
15-12-1994,4.8125,4.96875,116000,4.96875,4.84375,4.004946231842041
16-12-1994,4.8125,4.84375,312800,4.875,4.84375,4.004946231842041
19-12-1994,4.75,4.84375,426800,4.84375,4.8125,3.9791035652160645
20-12-1994,4.625,4.75,305200,4.8125,4.65625,3.849915027618408
21-12-1994,4.59375,4.6875,634400,4.6875,4.625,3.8240771293640137
22-12-1994,4.53125,4.65625,284000,4.65625,4.53125,3.746560573577881
23-12-1994,4.53125,4.5625,29600,4.59375,4.5625,3.772400140762329
27-12-1994,4.4375,4.59375,209600,4.59375,4.5,3.7207226753234863
28-12-1994,4.5,4.5,228800,4.59375,4.59375,3.79823899269104
29-12-1994,4.65625,4.65625,221200,4.8125,4.71875,3.90159010887146
30-12-1994,4.6875,4.71875,150400,4.78125,4.6875,3.8757541179656982
03-01-1995,4.65625,4.75,129600,4.78125,4.75,3.92742919921875
04-01-1995,4.6875,4.75,68400,4.8125,4.71875,3.90159010887146
05-01-1995,4.59375,4.65625,260000,4.6875,4.65625,3.849915027618408
06-01-1995,4.5,4.6875,404800,4.6875,4.5625,3.772400140762329
09-01-1995,4.46875,4.53125,613600,4.5625,4.46875,3.7009668350219727
10-01-1995,4.3125,4.4375,289600,4.4375,4.3125,3.571563482284546
11-01-1995,4.3125,4.3125,124800,4.40625,4.40625,3.649207830429077
12-01-1995,4.3125,4.375,374400,4.4375,4.3125,3.571563482284546
13-01-1995,4.28125,4.3125,66800,4.40625,4.375,3.6233253479003906
16-01-1995,4.28125,4.3125,480800,4.328125,4.3125,3.571563482284546
17-01-1995,4.3125,4.3125,437600,4.4375,4.40625,3.649207830429077
18-01-1995,4.40625,4.40625,606000,4.59375,4.5625,3.778610944747925
19-01-1995,4.5,4.5625,248000,4.5625,4.5,3.7268495559692383
20-01-1995,4.5,4.53125,76400,4.53125,4.53125,3.752729654312134
23-01-1995,4.375,4.46875,128800,4.5,4.375,3.6233253479003906
24-01-1995,4.375,4.375,345600,4.5625,4.53125,3.752729654312134
25-01-1995,4.46875,4.53125,129600,4.53125,4.5,3.7268495559692383
26-01-1995,4.5,4.5,145200,4.625,4.625,3.830373764038086
27-01-1995,4.5,4.5625,512000,4.59375,4.53125,3.752729654312134
30-01-1995,4.4375,4.53125,193200,4.53125,4.46875,3.7009668350219727
31-01-1995,4.4375,4.4375,186400,4.53125,4.4375,3.6750874519348145
01-02-1995,4.4375,4.4375,46000,4.5,4.46875,3.7009668350219727
02-02-1995,4.4375,4.46875,41600,4.5,4.46875,3.7009668350219727
03-02-1995,4.4375,4.5,243600,4.53125,4.5,3.7268495559692383
06-02-1995,4.5625,4.625,651200,4.8125,4.75,3.933896064758301
07-02-1995,4.6875,4.8125,437200,4.8125,4.6875,3.882136583328247
08-02-1995,4.71875,4.71875,549600,4.8125,4.75,3.933896064758301
09-02-1995,4.6875,4.78125,278800,4.78125,4.6875,3.882136583328247
10-02-1995,4.6875,4.71875,243600,4.78125,4.78125,3.9597792625427246
13-02-1995,4.8125,4.8125,264800,4.90625,4.84375,4.011539936065674
14-02-1995,4.75,4.84375,137600,4.84375,4.84375,4.011539936065674
15-02-1995,4.8125,4.84375,277200,4.96875,4.9375,4.089181423187256
16-02-1995,4.9375,4.9375,477600,5.03125,5.0,4.140942096710205
17-02-1995,5.0,5.0,261200,5.125,5.125,4.244466781616211
21-02-1995,5.09375,5.125,92400,5.125,5.125,4.244466781616211
22-02-1995,5.0625,5.09375,214400,5.125,5.09375,4.218585014343262
23-02-1995,5.0625,5.125,348800,5.15625,5.15625,4.2703471183776855
24-02-1995,5.09375,5.15625,281200,5.15625,5.125,4.244466781616211
27-02-1995,5.09375,5.125,381600,5.15625,5.15625,4.2703471183776855
28-02-1995,5.15625,5.1875,322400,5.21875,5.21875,4.322109222412109
01-03-1995,5.15625,5.1875,70800,5.1875,5.15625,4.2703471183776855
02-03-1995,5.15625,5.15625,218800,5.25,5.25,4.347990036010742
03-03-1995,5.21875,5.25,259600,5.28125,5.25,4.347990036010742
06-03-1995,5.15625,5.25,236400,5.25,5.21875,4.322109222412109
07-03-1995,5.125,5.25,405200,5.25,5.125,4.244466781616211
08-03-1995,5.125,5.15625,442800,5.28125,5.21875,4.322109222412109
09-03-1995,5.1875,5.25,179600,5.28125,5.28125,4.373872756958008
10-03-1995,5.15625,5.25,170400,5.25,5.15625,4.2703471183776855
13-03-1995,5.15625,5.1875,100800,5.21875,5.1875,4.296230316162109
14-03-1995,5.1875,5.1875,101600,5.25,5.25,4.347990036010742
15-03-1995,5.25,5.25,317200,5.34375,5.3125,4.399752616882324
16-03-1995,5.28125,5.28125,635600,5.5,5.4375,4.503279209136963
17-03-1995,5.3125,5.40625,492800,5.5,5.4375,4.503279209136963
20-03-1995,5.28125,5.40625,426800,5.5,5.34375,4.42563533782959
21-03-1995,5.25,5.3125,159600,5.3125,5.25,4.347990036010742
22-03-1995,5.28125,5.3125,349200,5.375,5.3125,4.399752616882324
23-03-1995,5.3125,5.34375,279600,5.4375,5.40625,4.477393627166748
24-03-1995,5.28125,5.40625,696000,5.40625,5.3125,4.399752616882324
27-03-1995,5.3125,5.34375,314400,5.5,5.5,4.55504035949707
28-03-1995,5.5,5.5,268800,5.5625,5.5625,4.606800079345703
29-03-1995,5.5625,5.5625,458000,5.6875,5.625,4.6585612297058105
30-03-1995,5.65625,5.65625,414400,5.875,5.875,4.865608215332031
31-03-1995,5.90625,5.90625,1336800,6.21875,6.15625,5.098538875579834
03-04-1995,5.96875,6.15625,1253600,6.15625,5.96875,4.943252086639404
04-04-1995,5.84375,5.96875,666000,5.96875,5.875,4.865608215332031
05-04-1995,5.84375,5.875,1044800,5.96875,5.90625,4.891490936279297
06-04-1995,5.71875,5.875,704000,5.875,5.71875,4.736202239990234
07-04-1995,5.625,5.6875,227600,5.75,5.625,4.664679527282715
10-04-1995,5.59375,5.59375,525600,5.75,5.75,4.768336772918701
11-04-1995,5.6875,5.78125,668400,5.78125,5.75,4.768336772918701
12-04-1995,5.71875,5.75,110400,5.78125,5.78125,4.794251441955566
13-04-1995,5.75,5.8125,191600,5.875,5.75,4.768336772918701
17-04-1995,5.75,5.78125,133200,5.8125,5.75,4.768336772918701
18-04-1995,5.5625,5.75,805200,5.75,5.5625,4.612849712371826
19-04-1995,5.53125,5.59375,182400,5.625,5.625,4.664679527282715
20-04-1995,5.625,5.625,356000,5.78125,5.78125,4.794251441955566
21-04-1995,5.8125,5.8125,1894000,6.1875,6.09375,5.053403377532959
24-04-1995,5.9375,6.125,940800,6.1875,5.9375,4.923827171325684
25-04-1995,5.84375,5.875,103200,5.90625,5.84375,4.846085071563721
26-04-1995,5.71875,5.875,144000,5.875,5.78125,4.794251441955566
27-04-1995,5.65625,5.78125,390800,5.78125,5.65625,4.690594673156738
28-04-1995,5.6875,5.71875,266400,5.71875,5.71875,4.742422103881836
01-05-1995,5.71875,5.75,529200,5.78125,5.75,4.768336772918701
02-05-1995,5.6875,5.75,406400,5.75,5.75,4.768336772918701
03-05-1995,5.75,5.75,199600,5.8125,5.75,4.768336772918701
04-05-1995,5.6875,5.75,215200,5.75,5.71875,4.742422103881836
05-05-1995,5.65625,5.6875,289200,5.75,5.65625,4.690594673156738
08-05-1995,5.625,5.65625,224000,5.6875,5.65625,4.690594673156738
09-05-1995,5.625,5.65625,509200,5.8125,5.8125,4.820169925689697
10-05-1995,5.78125,5.78125,706400,5.9375,5.9375,4.923827171325684
11-05-1995,5.78125,5.90625,222000,5.90625,5.8125,4.820169925689697
12-05-1995,5.75,5.8125,38800,5.8125,5.78125,4.794251441955566
15-05-1995,5.78125,5.8125,279600,5.875,5.875,4.871997356414795
16-05-1995,5.84375,5.90625,43200,5.9375,5.84375,4.846085071563721
17-05-1995,5.78125,5.84375,295600,5.84375,5.8125,4.820169925689697
18-05-1995,5.65625,5.8125,107600,5.8125,5.71875,4.742422103881836
19-05-1995,5.71875,5.71875,130800,5.75,5.75,4.768336772918701
22-05-1995,5.6875,5.75,64000,5.75,5.6875,4.7165093421936035
23-05-1995,5.71875,5.71875,340800,5.90625,5.875,4.871997356414795
24-05-1995,5.84375,5.875,449200,6.09375,6.09375,5.053403377532959
25-05-1995,6.0,6.03125,798400,6.125,6.0625,5.027485370635986
26-05-1995,5.9375,6.0625,177600,6.0625,5.96875,4.949743270874023
30-05-1995,5.9375,5.9375,303600,6.03125,6.03125,5.001573085784912
31-05-1995,6.0,6.0625,254800,6.0625,6.0625,5.027485370635986
01-06-1995,6.03125,6.0625,26000,6.09375,6.03125,5.001573085784912
02-06-1995,5.9375,6.0625,201600,6.09375,5.96875,4.949743270874023
05-06-1995,5.96875,6.0,137600,6.0,6.0,4.975654602050781
06-06-1995,5.875,6.0,53200,6.0,5.90625,4.897914886474609
07-06-1995,5.8125,5.9375,307600,5.9375,5.8125,4.820169925689697
08-06-1995,5.75,5.8125,242000,5.8125,5.78125,4.794251441955566
09-06-1995,5.75,5.78125,652000,5.8125,5.78125,4.794251441955566
12-06-1995,5.71875,5.78125,188000,5.78125,5.75,4.768336772918701
13-06-1995,5.6875,5.6875,119200,5.71875,5.71875,4.742422103881836
14-06-1995,5.71875,5.78125,300400,5.78125,5.78125,4.794251441955566
15-06-1995,5.71875,5.75,186800,5.8125,5.8125,4.820169925689697
16-06-1995,5.6875,5.8125,190000,5.8125,5.6875,4.7165093421936035
19-06-1995,5.59375,5.65625,399600,5.71875,5.6875,4.7165093421936035
20-06-1995,5.34375,5.71875,788000,5.71875,5.34375,4.431446552276611
21-06-1995,5.1875,5.34375,494400,5.34375,5.21875,4.327785968780518
22-06-1995,5.0625,5.21875,762800,5.21875,5.15625,4.2759552001953125
23-06-1995,5.1875,5.1875,2558400,5.34375,5.3125,4.405529975891113
26-06-1995,5.25,5.28125,352400,5.375,5.34375,4.431446552276611
27-06-1995,5.3125,5.3125,496800,5.4375,5.40625,4.483273506164551
28-06-1995,5.21875,5.375,1011200,5.375,5.25,4.353699207305908
29-06-1995,5.1875,5.25,250400,5.25,5.1875,4.301872253417969
30-06-1995,5.21875,5.21875,653600,5.4375,5.4375,4.50919246673584
03-07-1995,5.34375,5.40625,317600,5.46875,5.46875,4.5351057052612305
05-07-1995,5.28125,5.4375,124000,5.4375,5.28125,4.379616737365723
06-07-1995,5.21875,5.25,680800,5.28125,5.25,4.353699207305908
07-07-1995,5.21875,5.25,272400,5.25,5.25,4.353699207305908
10-07-1995,5.125,5.28125,638400,5.3125,5.125,4.2500410079956055
11-07-1995,5.0,5.125,582000,5.28125,5.15625,4.2759552001953125
12-07-1995,5.1875,5.1875,335600,5.28125,5.25,4.360043525695801
13-07-1995,5.21875,5.375,817600,5.4375,5.21875,4.334090709686279
14-07-1995,5.15625,5.25,286000,5.28125,5.1875,4.308137893676758
17-07-1995,5.15625,5.1875,460400,5.25,5.21875,4.334090709686279
18-07-1995,5.21875,5.21875,77600,5.28125,5.28125,4.385996341705322
19-07-1995,5.1875,5.25,132000,5.28125,5.25,4.360043525695801
20-07-1995,5.25,5.25,379200,5.375,5.28125,4.385996341705322
21-07-1995,5.21875,5.28125,248000,5.375,5.34375,4.43790340423584
24-07-1995,5.3125,5.3125,176400,5.40625,5.375,4.46385383605957
25-07-1995,5.40625,5.40625,344000,5.46875,5.4375,4.5157575607299805
26-07-1995,5.34375,5.40625,244000,5.40625,5.34375,4.43790340423584
27-07-1995,5.21875,5.28125,758000,5.375,5.28125,4.385996341705322
28-07-1995,5.25,5.3125,111600,5.375,5.375,4.46385383605957
31-07-1995,5.34375,5.34375,217200,5.4375,5.40625,4.489806652069092
01-08-1995,5.1875,5.375,532800,5.375,5.21875,4.334090709686279
02-08-1995,5.1875,5.21875,302000,5.25,5.21875,4.334090709686279
03-08-1995,5.125,5.1875,552400,5.34375,5.34375,4.43790340423584
04-08-1995,5.28125,5.34375,558800,5.34375,5.34375,4.43790340423584
07-08-1995,5.34375,5.375,101600,5.40625,5.375,4.46385383605957
08-08-1995,5.34375,5.40625,305200,5.4375,5.34375,4.43790340423584
09-08-1995,5.3125,5.40625,703200,5.40625,5.3125,4.411946773529053
10-08-1995,5.1875,5.3125,166000,5.34375,5.1875,4.308137893676758
11-08-1995,5.15625,5.15625,349600,5.3125,5.3125,4.411946773529053
14-08-1995,5.25,5.34375,134400,5.34375,5.25,4.360043525695801
15-08-1995,5.25,5.3125,108800,5.34375,5.25,4.360043525695801
16-08-1995,5.125,5.21875,242000,5.21875,5.21875,4.334090709686279
17-08-1995,5.1875,5.1875,371600,5.3125,5.28125,4.385996341705322
18-08-1995,5.28125,5.28125,542400,5.5,5.40625,4.489806652069092
21-08-1995,5.40625,5.46875,575600,5.5,5.40625,4.489806652069092
22-08-1995,5.4375,5.4375,362400,5.53125,5.53125,4.5936150550842285
23-08-1995,5.5625,5.5625,317600,5.71875,5.625,4.671475410461426
24-08-1995,5.46875,5.59375,2007200,5.625,5.5,4.567666053771973
25-08-1995,5.5,5.5,160000,5.53125,5.5,4.567666053771973
28-08-1995,5.46875,5.5,280000,5.5625,5.53125,4.5936150550842285
29-08-1995,5.5,5.53125,56400,5.5625,5.53125,4.5936150550842285
30-08-1995,5.625,5.625,290400,5.65625,5.65625,4.697427272796631
31-08-1995,5.6875,5.6875,116800,5.84375,5.8125,4.82719087600708
01-09-1995,5.84375,5.84375,431200,5.96875,5.96875,4.95695161819458
05-09-1995,5.90625,5.96875,545200,6.03125,6.03125,5.008857250213623
06-09-1995,5.90625,5.96875,415600,6.0,6.0,4.98290491104126
07-09-1995,5.78125,6.0,284000,6.03125,6.03125,5.008857250213623
08-09-1995,5.9375,6.03125,248000,6.09375,5.9375,4.930999755859375
11-09-1995,5.9375,5.96875,230800,6.03125,6.03125,5.008857250213623
12-09-1995,5.90625,6.0,312400,6.15625,6.15625,5.112668991088867
13-09-1995,6.03125,6.125,547600,6.125,6.0625,5.034809589385986
14-09-1995,5.9375,6.03125,348000,6.09375,6.09375,5.060763359069824
15-09-1995,6.0625,6.0625,221200,6.1875,6.1875,5.1386213302612305
18-09-1995,6.125,6.15625,490000,6.34375,6.21875,5.164574146270752
19-09-1995,6.0,6.15625,504800,6.1875,6.15625,5.112668991088867
20-09-1995,6.0,6.125,284800,6.125,6.0,4.98290491104126
21-09-1995,5.9375,6.0625,451200,6.0625,6.03125,5.008857250213623
22-09-1995,5.78125,6.03125,143600,6.03125,5.875,4.879094123840332
25-09-1995,5.75,5.84375,183200,5.84375,5.78125,4.801237106323242
26-09-1995,5.65625,5.78125,232000,5.78125,5.65625,4.697427272796631
27-09-1995,5.625,5.6875,229200,5.75,5.75,4.775285720825195
28-09-1995,5.625,5.8125,263600,5.96875,5.625,4.671475410461426
29-09-1995,5.4375,5.59375,635600,5.59375,5.4375,4.5157575607299805
02-10-1995,5.4375,5.46875,548400,5.6875,5.59375,4.6455230712890625
03-10-1995,5.5625,5.5625,304400,5.6875,5.65625,4.697427272796631
04-10-1995,5.5625,5.625,230800,5.65625,5.65625,4.697427272796631
05-10-1995,5.5,5.625,76800,5.625,5.53125,4.5936150550842285
06-10-1995,5.5,5.5,259200,5.5625,5.5625,4.61956787109375
09-10-1995,5.5,5.59375,48000,5.59375,5.5,4.567666053771973
10-10-1995,5.375,5.46875,109600,5.46875,5.375,4.46385383605957
11-10-1995,5.34375,5.375,166000,5.40625,5.34375,4.43790340423584
12-10-1995,5.34375,5.375,620000,5.5625,5.5,4.574085235595703
13-10-1995,5.5,5.5,227200,5.59375,5.53125,4.600072860717773
16-10-1995,5.40625,5.53125,188800,5.53125,5.46875,4.548094272613525
17-10-1995,5.40625,5.4375,398400,5.5,5.5,4.574085235595703
18-10-1995,5.25,5.4375,1966400,5.46875,5.25,4.366171360015869
19-10-1995,5.21875,5.21875,1503600,5.3125,5.21875,4.340182304382324
20-10-1995,5.125,5.25,333600,5.25,5.125,4.262214660644531
23-10-1995,5.0,5.15625,608000,5.15625,5.0,4.158257961273193
24-10-1995,4.90625,5.0,1186800,5.0,4.9375,4.106279373168945
25-10-1995,4.71875,4.9375,658400,4.9375,4.71875,3.9243547916412354
26-10-1995,4.6875,4.75,439600,4.8125,4.71875,3.9243547916412354
27-10-1995,4.71875,4.71875,352000,4.875,4.875,4.054299831390381
30-10-1995,4.9375,4.9375,646800,5.0,4.96875,4.132267475128174
31-10-1995,4.96875,5.0,314800,5.03125,5.0,4.158257961273193
01-11-1995,5.0,5.0,390800,5.03125,5.0,4.158257961273193
02-11-1995,4.9375,4.96875,42800,5.0,4.9375,4.106279373168945
03-11-1995,4.875,4.875,165600,4.96875,4.96875,4.132267475128174
06-11-1995,4.90625,4.96875,63600,4.96875,4.90625,4.080290794372559
07-11-1995,4.9375,4.9375,476400,5.03125,5.03125,4.184247016906738
08-11-1995,4.875,4.96875,907200,5.0,5.0,4.158257961273193
09-11-1995,5.03125,5.09375,1176400,5.15625,5.03125,4.184247016906738
10-11-1995,4.90625,5.03125,550000,5.03125,4.90625,4.080290794372559
13-11-1995,4.9375,4.96875,446800,5.09375,5.09375,4.236225128173828
14-11-1995,4.9375,5.03125,1045600,5.0625,4.96875,4.132267475128174
15-11-1995,4.96875,4.96875,228000,5.03125,5.0,4.158257961273193
16-11-1995,5.03125,5.03125,1046400,5.4375,5.375,4.470127582550049
17-11-1995,5.375,5.40625,906800,5.40625,5.40625,4.496117115020752
20-11-1995,5.1875,5.40625,585600,5.40625,5.1875,4.3141937255859375
21-11-1995,5.1875,5.21875,363200,5.375,5.34375,4.44413948059082
22-11-1995,5.34375,5.375,432800,5.40625,5.40625,4.496117115020752
24-11-1995,5.3125,5.40625,229200,5.40625,5.3125,4.418148994445801
27-11-1995,5.125,5.21875,851200,5.21875,5.1875,4.3141937255859375
28-11-1995,5.1875,5.1875,315200,5.28125,5.25,4.366171360015869
29-11-1995,5.21875,5.28125,28800,5.28125,5.21875,4.340182304382324
30-11-1995,5.1875,5.28125,311200,5.28125,5.25,4.366171360015869
01-12-1995,5.25,5.25,308400,5.34375,5.28125,4.392159938812256
04-12-1995,5.125,5.3125,1056000,5.3125,5.3125,4.418148994445801
05-12-1995,5.3125,5.3125,461200,5.375,5.375,4.470127582550049
06-12-1995,5.40625,5.40625,685200,5.4375,5.4375,4.5221052169799805
07-12-1995,5.4375,5.4375,720400,5.5,5.5,4.574085235595703
08-12-1995,5.4375,5.46875,18838800,5.65625,5.65625,4.704028129577637
11-12-1995,5.71875,5.8125,5631200,5.875,5.875,4.885952472686768
12-12-1995,5.8125,5.875,2874000,5.90625,5.875,4.885952472686768
13-12-1995,5.84375,5.875,3176800,6.09375,6.0,4.989908218383789
14-12-1995,5.90625,6.03125,2280000,6.09375,5.90625,4.911942005157471
15-12-1995,5.875,6.1875,1721200,6.21875,6.0,4.989908218383789
18-12-1995,5.8125,5.9375,974000,5.96875,5.96875,4.963920593261719
19-12-1995,5.875,5.96875,876000,6.0625,6.0625,5.04188871383667
20-12-1995,6.03125,6.0625,2001200,6.21875,6.03125,5.01589822769165
21-12-1995,6.0,6.03125,1896800,6.125,6.03125,5.01589822769165
22-12-1995,5.9375,6.09375,1115600,6.15625,6.03125,5.01589822769165
26-12-1995,6.03125,6.09375,490800,6.09375,6.03125,5.01589822769165
27-12-1995,5.9375,6.03125,582000,6.03125,5.9375,4.937932014465332
28-12-1995,5.90625,5.90625,1150800,6.15625,6.15625,5.11985445022583
29-12-1995,5.9375,6.1875,677200,6.1875,6.0,4.989908218383789
02-01-1996,6.03125,6.0625,579600,6.125,6.09375,5.067874908447266
03-01-1996,5.875,6.125,1148000,6.125,5.96875,4.963920593261719
04-01-1996,5.9375,5.96875,1644000,6.0625,5.96875,4.963920593261719
05-01-1996,5.9375,5.9375,680800,6.09375,6.0625,5.04188871383667
08-01-1996,6.0625,6.0625,779200,6.125,6.125,5.093865394592285
09-01-1996,5.9375,6.15625,948400,6.15625,6.0,4.989908218383789
10-01-1996,5.84375,6.0,516400,6.03125,5.96875,4.963920593261719
11-01-1996,5.6875,5.8125,1618400,5.8125,5.78125,4.814033508300781
12-01-1996,5.75,5.75,555200,5.8125,5.8125,4.840056419372559
15-01-1996,5.75,5.875,1159200,5.875,5.75,4.788013935089111
16-01-1996,5.71875,5.75,1683200,5.8125,5.75,4.788013935089111
17-01-1996,5.59375,5.75,2281600,5.78125,5.75,4.788013935089111
18-01-1996,5.71875,5.75,504000,5.78125,5.78125,4.814033508300781
19-01-1996,5.75,5.8125,803200,5.84375,5.75,4.788013935089111
22-01-1996,5.78125,5.78125,545600,5.875,5.875,4.892097473144531
23-01-1996,5.78125,5.84375,426400,5.90625,5.78125,4.814033508300781
24-01-1996,5.78125,5.8125,539600,5.96875,5.875,4.892097473144531
25-01-1996,5.875,5.875,693600,5.96875,5.9375,4.944143295288086
26-01-1996,5.875,5.90625,1880000,5.90625,5.875,4.892097473144531
29-01-1996,5.875,5.90625,1636800,6.0,6.0,4.996185779571533
30-01-1996,5.96875,6.0,970800,6.03125,6.03125,5.022207260131836
31-01-1996,5.96875,6.03125,650000,6.125,6.09375,5.074251651763916
01-02-1996,6.125,6.125,2182400,6.3125,6.21875,5.178339004516602
02-02-1996,6.125,6.15625,1204000,6.25,6.15625,5.126296043395996
05-02-1996,6.0625,6.09375,923200,6.15625,6.09375,5.074251651763916
06-02-1996,6.03125,6.09375,938400,6.125,6.03125,5.022207260131836
07-02-1996,6.0625,6.09375,838800,6.15625,6.125,5.100271701812744
08-02-1996,6.125,6.125,705600,6.25,6.1875,5.152316570281982
09-02-1996,6.125,6.1875,1770400,6.28125,6.25,5.2043585777282715
12-02-1996,6.15625,6.25,4923200,6.65625,6.53125,5.438558101654053
13-02-1996,6.25,6.59375,3442800,6.59375,6.34375,5.282425880432129
14-02-1996,6.375,6.375,1570000,6.625,6.5625,5.464577674865723
15-02-1996,6.53125,6.53125,1637600,6.9375,6.90625,5.750819683074951
16-02-1996,6.65625,7.125,2182000,7.125,6.75,5.620711326599121
20-02-1996,6.5625,6.625,421200,6.71875,6.625,5.5166239738464355
21-02-1996,6.53125,6.5625,1553600,6.71875,6.71875,5.594689846038818
22-02-1996,6.59375,6.6875,1300800,6.75,6.6875,5.568664073944092
23-02-1996,6.5625,6.65625,660000,6.75,6.71875,5.594689846038818
26-02-1996,6.5625,6.625,556400,6.65625,6.59375,5.490601062774658
27-02-1996,6.5,6.53125,532800,6.625,6.59375,5.490601062774658
28-02-1996,6.40625,6.59375,2225600,6.71875,6.40625,5.334470748901367
29-02-1996,6.1875,6.4375,956000,6.4375,6.25,5.2043585777282715
01-03-1996,6.25,6.25,402800,6.34375,6.25,5.2043585777282715
04-03-1996,6.1875,6.25,809200,6.34375,6.3125,5.256406307220459
05-03-1996,6.15625,6.25,574000,6.25,6.25,5.2043585777282715
06-03-1996,6.1875,6.21875,830000,6.40625,6.40625,5.334470748901367
07-03-1996,6.3125,6.375,1132000,6.40625,6.375,5.30844783782959
08-03-1996,6.1875,6.1875,278400,6.28125,6.21875,5.178339004516602
11-03-1996,6.09375,6.1875,1366400,6.1875,6.15625,5.126296043395996
12-03-1996,6.09375,6.125,1108400,6.15625,6.125,5.100271701812744
13-03-1996,6.125,6.125,1038800,6.1875,6.1875,5.152316570281982
14-03-1996,6.25,6.25,2724800,6.40625,6.3125,5.256406307220459
15-03-1996,6.0,6.25,1051600,6.25,6.0625,5.048228740692139
18-03-1996,6.0625,6.09375,4547200,6.375,6.375,5.30844783782959
19-03-1996,6.34375,6.375,473600,6.4375,6.34375,5.282425880432129
20-03-1996,6.1875,6.375,223600,6.375,6.1875,5.152316570281982
21-03-1996,6.125,6.1875,936800,6.28125,6.125,5.100271701812744
22-03-1996,6.09375,6.15625,1019600,6.1875,6.09375,5.074251651763916
25-03-1996,6.0625,6.0625,907200,6.28125,6.28125,5.230382442474365
26-03-1996,6.25,6.28125,216800,6.3125,6.3125,5.256406307220459
27-03-1996,6.40625,6.5,1842000,6.59375,6.53125,5.438558101654053
28-03-1996,6.53125,6.53125,1270000,6.65625,6.65625,5.542644023895264
29-03-1996,6.5625,6.59375,1343600,6.625,6.59375,5.490601062774658
01-04-1996,6.5625,6.59375,752800,6.6875,6.6875,5.568664073944092
02-04-1996,6.65625,6.71875,1116400,6.875,6.84375,5.6987762451171875
03-04-1996,6.71875,6.78125,1519600,6.96875,6.9375,5.7768402099609375
04-04-1996,6.75,6.9375,796800,6.9375,6.875,5.724796295166016
08-04-1996,6.625,6.84375,1262800,6.84375,6.8125,5.672756671905518
09-04-1996,6.8125,6.8125,923200,6.90625,6.875,5.724796295166016
10-04-1996,6.78125,6.8125,1358000,6.96875,6.9375,5.7768402099609375
11-04-1996,6.84375,6.875,932000,6.9375,6.875,5.730993747711182
12-04-1996,6.59375,6.875,1120000,6.875,6.65625,5.548642635345459
15-04-1996,6.5625,6.59375,948000,6.78125,6.75,5.626793384552002
16-04-1996,6.6875,6.78125,846000,6.78125,6.75,5.626793384552002
17-04-1996,6.65625,6.75,1494800,6.75,6.6875,5.574692249298096
18-04-1996,6.5,6.6875,1113200,6.6875,6.53125,5.444443225860596
19-04-1996,6.5,6.5,884400,6.6875,6.65625,5.548642635345459
22-04-1996,6.65625,6.65625,2457600,6.90625,6.8125,5.678895473480225
23-04-1996,6.78125,6.9375,1053200,7.0,6.90625,5.757042407989502
24-04-1996,6.90625,6.90625,1069200,7.15625,7.03125,5.861244201660156
25-04-1996,6.9375,6.96875,536800,7.0,6.9375,5.783093452453613
26-04-1996,6.78125,6.875,486400,6.9375,6.78125,5.652845859527588
29-04-1996,6.71875,6.71875,705200,6.875,6.78125,5.652845859527588
30-04-1996,6.59375,6.8125,779600,6.875,6.625,5.522596836090088
01-05-1996,6.5,6.625,808400,6.75,6.5,5.418393611907959
02-05-1996,6.46875,6.5625,373600,6.59375,6.5625,5.470493316650391
03-05-1996,6.53125,6.625,680000,6.625,6.625,5.522596836090088
06-05-1996,6.5625,6.59375,504400,6.65625,6.5625,5.470493316650391
07-05-1996,6.125,6.625,1395600,6.65625,6.21875,5.1839423179626465
08-05-1996,6.1875,6.25,620400,6.34375,6.25,5.209990978240967
09-05-1996,6.25,6.25,332000,6.375,6.375,5.314194202423096
10-05-1996,6.25,6.375,818400,6.40625,6.3125,5.262093544006348
13-05-1996,6.21875,6.25,796000,6.3125,6.25,5.209990978240967
14-05-1996,6.15625,6.25,1208800,6.28125,6.15625,5.1318440437316895
15-05-1996,6.09375,6.1875,2372400,6.3125,6.3125,5.262093544006348
16-05-1996,6.25,6.34375,379600,6.34375,6.28125,5.2360429763793945
17-05-1996,6.1875,6.25,1017600,6.28125,6.25,5.209990978240967
20-05-1996,6.25,6.25,425600,6.375,6.34375,5.288144111633301
21-05-1996,6.3125,6.3125,2660400,6.46875,6.4375,5.366294860839844
22-05-1996,6.4375,6.4375,552000,6.5,6.5,5.418393611907959
23-05-1996,6.53125,6.5625,1154800,6.75,6.5625,5.470493316650391
24-05-1996,6.4375,6.5,1701200,6.53125,6.5,5.418393611907959
28-05-1996,6.359375,6.53125,554000,6.53125,6.4375,5.366294860839844
29-05-1996,6.3125,6.40625,613600,6.40625,6.375,5.314194202423096
30-05-1996,6.25,6.375,604000,6.375,6.3125,5.262093544006348
31-05-1996,6.25,6.34375,493200,6.375,6.3125,5.262093544006348
03-06-1996,6.28125,6.3125,211200,6.3125,6.3125,5.262093544006348
04-06-1996,6.375,6.40625,654800,6.46875,6.375,5.314194202423096
05-06-1996,6.40625,6.4375,679600,6.46875,6.4375,5.366294860839844
06-06-1996,6.25,6.4375,278800,6.4375,6.28125,5.2360429763793945
07-06-1996,6.15625,6.21875,702800,6.34375,6.34375,5.288144111633301
10-06-1996,6.3125,6.34375,241200,6.34375,6.3125,5.262093544006348
11-06-1996,6.28125,6.3125,761600,6.375,6.3125,5.262093544006348
12-06-1996,6.25,6.3125,1385200,6.3125,6.28125,5.2360429763793945
13-06-1996,6.09375,6.28125,985600,6.28125,6.1875,5.157892227172852
14-06-1996,6.15625,6.1875,1093200,6.21875,6.15625,5.1318440437316895
17-06-1996,6.0625,6.09375,586400,6.125,6.0625,5.05369234085083
18-06-1996,5.96875,6.0,1450000,6.125,5.96875,4.975545406341553
19-06-1996,6.03125,6.03125,1416800,6.15625,6.0625,5.05369234085083
20-06-1996,6.0625,6.09375,1258400,6.125,6.09375,5.079744815826416
21-06-1996,6.0,6.09375,650800,6.09375,6.0,5.001593112945557
24-06-1996,5.96875,6.03125,948000,6.0625,6.0,5.001593112945557
25-06-1996,5.96875,6.03125,2754000,6.25,6.15625,5.1318440437316895
26-06-1996,6.21875,6.21875,5256400,6.625,6.625,5.522596836090088
27-06-1996,6.53125,6.59375,4884000,6.75,6.75,5.626793384552002
28-06-1996,6.78125,6.8125,5409200,6.96875,6.96875,5.809143543243408
01-07-1996,6.90625,6.96875,3778800,7.28125,7.28125,6.069644451141357
02-07-1996,7.125,7.15625,2342000,7.25,7.21875,6.017542839050293
03-07-1996,7.125,7.125,1392000,7.21875,7.21875,6.017542839050293
05-07-1996,7.125,7.21875,753600,7.3125,7.28125,6.069644451141357
08-07-1996,7.1875,7.25,924800,7.3125,7.25,6.043593883514404
09-07-1996,7.25,7.25,2440800,7.5625,7.5,6.2519941329956055
10-07-1996,7.46875,7.5,3225600,7.65625,7.5625,6.304091930389404
11-07-1996,7.125,7.46875,3954400,7.59375,7.1875,5.997440338134766
12-07-1996,7.125,7.15625,1191200,7.21875,7.15625,5.971365451812744
15-07-1996,7.09375,7.125,1718400,7.34375,7.125,5.94528865814209
16-07-1996,6.5625,7.0625,1854400,7.09375,6.65625,5.554152011871338
17-07-1996,6.6875,6.6875,2270000,6.96875,6.6875,5.580225944519043
18-07-1996,6.65625,6.75,990400,6.8125,6.71875,5.606306076049805
19-07-1996,6.65625,6.6875,1322800,6.71875,6.6875,5.580225944519043
22-07-1996,6.5625,6.6875,1101600,6.6875,6.59375,5.501999855041504
23-07-1996,6.53125,6.625,2303200,6.8125,6.8125,5.684532642364502
24-07-1996,6.625,6.75,327600,6.75,6.625,5.528077125549316
25-07-1996,6.375,6.625,762800,6.78125,6.375,5.319469451904297
26-07-1996,6.40625,6.40625,462800,6.5625,6.53125,5.449848175048828
29-07-1996,6.4375,6.5,676800,6.53125,6.5,5.423772811889648
30-07-1996,6.25,6.46875,1988800,6.53125,6.3125,5.267318248748779
31-07-1996,6.125,6.3125,1733600,6.3125,6.25,5.215166091918945
01-08-1996,6.25,6.25,1422800,6.375,6.3125,5.267318248748779
02-08-1996,6.3125,6.3125,1042800,6.46875,6.46875,5.397696018218994
05-08-1996,6.34375,6.46875,503200,6.59375,6.59375,5.501999855041504
06-08-1996,6.5,6.59375,495200,6.65625,6.65625,5.554152011871338
07-08-1996,6.75,6.75,1542800,6.84375,6.84375,5.71060848236084
08-08-1996,6.75,6.84375,767600,6.875,6.84375,5.71060848236084
09-08-1996,6.71875,6.875,634400,6.875,6.71875,5.606306076049805
12-08-1996,6.625,6.75,167600,6.75,6.625,5.528077125549316
13-08-1996,6.625,6.65625,389600,6.6875,6.625,5.528077125549316
14-08-1996,6.625,6.625,333200,6.65625,6.65625,5.554152011871338
15-08-1996,6.625,6.625,331600,6.75,6.75,5.632379055023193
16-08-1996,6.625,6.6875,329600,6.71875,6.71875,5.606306076049805
19-08-1996,6.625,6.65625,339200,6.78125,6.78125,5.658456802368164
20-08-1996,6.6875,6.8125,928800,6.8125,6.75,5.632379055023193
21-08-1996,6.59375,6.71875,837600,6.71875,6.65625,5.554152011871338
22-08-1996,6.59375,6.65625,433200,6.6875,6.65625,5.554152011871338
23-08-1996,6.5625,6.59375,228800,6.65625,6.625,5.528077125549316
26-08-1996,6.5625,6.625,488000,6.65625,6.65625,5.554152011871338
27-08-1996,6.5,6.625,669600,6.625,6.5,5.423772811889648
28-08-1996,6.46875,6.5,392800,6.5,6.46875,5.397696018218994
29-08-1996,6.4375,6.46875,499200,6.5,6.46875,5.397696018218994
30-08-1996,6.375,6.4375,160800,6.46875,6.46875,5.397696018218994
03-09-1996,6.5,6.5,1298800,6.59375,6.5625,5.47592306137085
04-09-1996,6.40625,6.53125,356400,6.53125,6.46875,5.397696018218994
05-09-1996,6.375,6.4375,382800,6.5,6.4375,5.371622562408447
06-09-1996,6.3125,6.4375,2431600,6.59375,6.46875,5.397696018218994
09-09-1996,6.40625,6.46875,501200,6.53125,6.5,5.423772811889648
10-09-1996,6.46875,6.5,488400,6.53125,6.46875,5.397696018218994
11-09-1996,6.46875,6.46875,1305600,6.65625,6.5625,5.47592306137085
12-09-1996,6.28125,6.53125,1240800,6.53125,6.3125,5.267318248748779
13-09-1996,6.125,6.3125,1250400,6.3125,6.125,5.110863208770752
16-09-1996,6.03125,6.125,1839600,6.125,6.0625,5.05871057510376
17-09-1996,5.71875,5.875,3505600,5.9375,5.875,4.9022536277771
18-09-1996,5.875,5.90625,2286800,6.09375,6.0,5.006558895111084
19-09-1996,5.96875,5.96875,2160800,6.09375,6.03125,5.0326337814331055
20-09-1996,6.03125,6.03125,601200,6.09375,6.03125,5.0326337814331055
23-09-1996,6.0,6.0625,1021600,6.0625,6.03125,5.0326337814331055
24-09-1996,5.84375,6.0,1552000,6.0625,5.90625,4.928330421447754
25-09-1996,5.78125,5.90625,1691200,6.0,6.0,5.006558895111084
26-09-1996,6.03125,6.03125,856400,6.15625,6.125,5.110863208770752
27-09-1996,6.0,6.0625,1036000,6.09375,6.03125,5.0326337814331055
30-09-1996,6.0,6.0,1134400,6.21875,6.21875,5.189087390899658
01-10-1996,6.25,6.25,956400,6.3125,6.3125,5.267318248748779
02-10-1996,6.28125,6.3125,774800,6.40625,6.375,5.319469451904297
03-10-1996,6.28125,6.375,691600,6.375,6.28125,5.2412428855896
04-10-1996,6.28125,6.34375,592000,6.40625,6.28125,5.2412428855896
07-10-1996,6.25,6.28125,1552000,6.4375,6.40625,5.345544338226318
08-10-1996,6.34375,6.40625,1220000,6.46875,6.375,5.319469451904297
09-10-1996,6.25,6.375,772800,6.375,6.3125,5.267318248748779
10-10-1996,5.9375,6.21875,2254800,6.21875,6.0,5.012513637542725
11-10-1996,5.9375,6.0,1258800,6.0625,5.9375,4.960302352905273
14-10-1996,5.8125,5.9375,2306000,5.96875,5.84375,4.881979465484619
15-10-1996,5.84375,5.875,1424800,6.0,6.0,5.012513637542725
16-10-1996,5.96875,6.0,1880000,6.09375,6.09375,5.090834617614746
17-10-1996,6.125,6.15625,1636400,6.25,6.25,5.221369743347168
18-10-1996,6.21875,6.25,1060800,6.40625,6.375,5.325797080993652
21-10-1996,6.25,6.34375,722000,6.375,6.25,5.221369743347168
22-10-1996,6.15625,6.25,1494400,6.3125,6.1875,5.169155597686768
23-10-1996,5.96875,6.15625,2842800,6.15625,6.0,5.012513637542725
24-10-1996,6.0,6.03125,1593200,6.09375,6.0625,5.0647292137146
25-10-1996,6.09375,6.09375,1020000,6.21875,6.21875,5.195260524749756
28-10-1996,6.09375,6.15625,995600,6.1875,6.09375,5.090834617614746
29-10-1996,6.03125,6.09375,1533600,6.15625,6.15625,5.143049240112305
30-10-1996,6.15625,6.15625,3300400,6.375,6.375,5.325797080993652
31-10-1996,6.375,6.375,1713200,6.53125,6.4375,5.378012180328369
01-11-1996,6.25,6.4375,1226800,6.46875,6.28125,5.247476577758789
04-11-1996,6.1875,6.25,1135200,6.28125,6.1875,5.169155597686768
05-11-1996,6.1875,6.25,730800,6.25,6.21875,5.195260524749756
06-11-1996,6.125,6.21875,395600,6.21875,6.125,5.116940975189209
07-11-1996,6.0,6.0,1647200,6.0625,6.0,5.012513637542725
08-11-1996,6.0,6.0625,1212400,6.15625,6.15625,5.143049240112305
11-11-1996,6.15625,6.1875,1075600,6.28125,6.25,5.221369743347168
12-11-1996,6.25,6.3125,1186400,6.375,6.25,5.221369743347168
13-11-1996,6.25,6.28125,1387200,6.28125,6.28125,5.247476577758789
14-11-1996,6.28125,6.28125,2227200,6.3125,6.3125,5.27358341217041
15-11-1996,6.21875,6.28125,1321600,6.34375,6.25,5.221369743347168
18-11-1996,6.1875,6.25,682000,6.25,6.25,5.221369743347168
19-11-1996,6.21875,6.25,2281600,6.40625,6.40625,5.351903438568115
20-11-1996,6.5625,6.75,3805200,6.78125,6.78125,5.665188312530518
21-11-1996,6.59375,6.78125,1956000,6.78125,6.625,5.5346527099609375
22-11-1996,6.625,6.65625,2746800,7.0,6.96875,5.821825981140137
25-11-1996,6.875,7.03125,1406000,7.09375,7.03125,5.87404203414917
