Date,Low,Open,Volume,High,Close,Adjusted Close
17-03-1980,1.6796875,0.0,164800,1.75,1.6875,0.5796517729759216
18-03-1980,1.6328125,0.0,188800,1.6875,1.65625,0.568917453289032
19-03-1980,1.6640625,0.0,84800,1.6875,1.6796875,0.5769681930541992
20-03-1980,1.6484375,0.0,328000,1.6875,1.6875,0.5796517729759216
21-03-1980,1.6640625,0.0,249600,1.6796875,1.6640625,0.5716010928153992
24-03-1980,1.640625,0.0,142400,1.6796875,1.6796875,0.5769681930541992
25-03-1980,1.6640625,0.0,249600,1.6875,1.6640625,0.5716010928153992
26-03-1980,1.6484375,0.0,228800,1.6875,1.65625,0.568917453289032
27-03-1980,1.640625,0.0,268800,1.65625,1.6484375,0.5662343502044678
28-03-1980,1.6484375,0.0,132800,1.671875,1.65625,0.568917453289032
31-03-1980,1.671875,0.0,363200,1.796875,1.796875,0.617222011089325
01-04-1980,1.75,0.0,276800,1.8046875,1.765625,0.606487512588501
02-04-1980,1.7109375,0.0,86400,1.765625,1.7109375,0.5877026915550232
03-04-1980,1.6953125,0.0,156800,1.7265625,1.71875,0.5903860330581665
07-04-1980,1.6875,0.0,195200,1.71875,1.6953125,0.582335352897644
08-04-1980,1.6875,0.0,414400,1.71875,1.7109375,0.5877026915550232
09-04-1980,1.6796875,0.0,432000,1.7109375,1.6875,0.5796517729759216
10-04-1980,1.6796875,0.0,544000,1.703125,1.6875,0.5796517729759216
11-04-1980,1.6953125,0.0,372800,1.734375,1.734375,0.5957533121109009
14-04-1980,1.7265625,0.0,107200,1.75,1.734375,0.5957533121109009
15-04-1980,1.7265625,0.0,110400,1.75,1.7265625,0.5930697917938232
16-04-1980,1.734375,0.0,316800,1.75,1.734375,0.5957533121109009
17-04-1980,1.734375,0.0,108800,1.75,1.734375,0.5957533121109009
18-04-1980,1.734375,0.0,96000,1.75,1.7421875,0.5984365940093994
21-04-1980,1.734375,0.0,128000,1.7421875,1.734375,0.5957533121109009
22-04-1980,1.7265625,0.0,99200,1.765625,1.765625,0.606487512588501
23-04-1980,1.765625,0.0,123200,1.796875,1.765625,0.606487512588501
24-04-1980,1.78125,0.0,152000,1.8125,1.7890625,0.6145381331443787
25-04-1980,1.7734375,0.0,67200,1.8125,1.8046875,0.619905412197113
28-04-1980,1.765625,0.0,361600,1.8046875,1.78125,0.6118546724319458
29-04-1980,1.7890625,0.0,164800,1.8359375,1.8125,0.622589111328125
30-04-1980,1.796875,0.0,152000,1.84375,1.8359375,0.6306398510932922
01-05-1980,1.8203125,0.0,312000,1.8671875,1.859375,0.6386908292770386
02-05-1980,1.875,0.0,476800,1.953125,1.9453125,0.6682098507881165
05-05-1980,1.90625,0.0,828800,1.9296875,1.9296875,0.6628423929214478
06-05-1980,1.8828125,0.0,216000,1.90625,1.8828125,0.6467412710189819
07-05-1980,1.8671875,0.0,209600,1.90625,1.890625,0.6494247913360596
08-05-1980,1.8984375,0.0,158400,1.9140625,1.8984375,0.6521084308624268
09-05-1980,1.8671875,0.0,129600,1.8984375,1.8671875,0.641374409198761
12-05-1980,1.8671875,0.0,190400,1.875,1.8671875,0.641374409198761
13-05-1980,1.859375,0.0,70400,1.875,1.875,0.6440576910972595
14-05-1980,1.859375,0.0,129600,1.875,1.875,0.6440576910972595
15-05-1980,1.8125,0.0,240000,1.875,1.859375,0.6386908292770386
16-05-1980,1.765625,0.0,120000,1.84375,1.765625,0.606487512588501
19-05-1980,1.765625,0.0,148800,1.7890625,1.7890625,0.6145381331443787
20-05-1980,1.7890625,0.0,158400,1.8359375,1.8359375,0.6306398510932922
21-05-1980,1.8203125,0.0,532800,1.8671875,1.8359375,0.6306398510932922
22-05-1980,1.796875,0.0,571200,1.828125,1.828125,0.6279563903808594
23-05-1980,1.796875,0.0,224000,1.828125,1.828125,0.6279563903808594
27-05-1980,1.8125,0.0,316800,1.8671875,1.828125,0.6279563903808594
28-05-1980,1.8359375,0.0,542400,1.8671875,1.8671875,0.641374409198761
29-05-1980,1.8515625,0.0,187200,1.875,1.8515625,0.6360067129135132
30-05-1980,1.84375,0.0,227200,1.890625,1.890625,0.6494247913360596
02-06-1980,1.875,0.0,192000,1.90625,1.890625,0.6494247913360596
03-06-1980,1.90625,0.0,320000,1.953125,1.921875,0.6601589322090149
04-06-1980,1.921875,0.0,123200,1.953125,1.9296875,0.6628423929214478
05-06-1980,1.9375,0.0,467200,2.0,1.96875,0.6762601733207703
06-06-1980,1.9375,0.0,120000,1.96875,1.9375,0.6655261516571045
09-06-1980,1.9296875,0.0,83200,1.953125,1.9375,0.6655261516571045
10-06-1980,1.953125,0.0,203200,1.9921875,1.9921875,0.684311032295227
11-06-1980,1.9765625,0.0,70400,1.9921875,1.9921875,0.684311032295227
12-06-1980,1.9609375,0.0,128000,1.984375,1.96875,0.6762601733207703
13-06-1980,1.953125,0.0,176000,1.984375,1.984375,0.6816272139549255
16-06-1980,1.953125,0.0,251200,1.984375,1.9765625,0.6789442896842957
17-06-1980,1.953125,0.0,155200,1.9765625,1.953125,0.6708932518959045
18-06-1980,1.9453125,0.0,147200,1.9609375,1.9609375,0.6735766530036926
19-06-1980,1.9375,0.0,187200,1.9609375,1.9375,0.6655261516571045
20-06-1980,1.9375,0.0,300800,1.9609375,1.953125,0.6708932518959045
23-06-1980,1.9375,0.0,128000,1.953125,1.9375,0.6655261516571045
24-06-1980,1.9375,0.0,452800,1.953125,1.9375,0.6655261516571045
25-06-1980,1.9375,0.0,142400,1.9609375,1.9609375,0.6735766530036926
26-06-1980,1.9296875,0.0,152000,1.953125,1.9375,0.6655261516571045
27-06-1980,1.9296875,0.0,737600,1.9375,1.9375,0.6655261516571045
30-06-1980,1.84375,0.0,265600,1.9375,1.875,0.6440576910972595
01-07-1980,1.84375,0.0,1777600,1.890625,1.890625,0.6494247913360596
02-07-1980,1.875,0.0,489600,1.890625,1.8828125,0.6467412710189819
03-07-1980,1.890625,0.0,136000,1.921875,1.8984375,0.6521084308624268
07-07-1980,1.9140625,0.0,193600,1.9375,1.921875,0.6601589322090149
08-07-1980,1.9375,0.0,206400,1.953125,1.953125,0.6708932518959045
09-07-1980,1.9375,0.0,321600,1.9921875,1.9921875,0.684311032295227
10-07-1980,1.96875,0.0,627200,2.0234375,2.0,0.6869947910308838
11-07-1980,1.984375,0.0,158400,2.015625,2.015625,0.6923618316650391
14-07-1980,2.0,0.0,190400,2.0546875,2.0546875,0.7057793736457825
15-07-1980,2.046875,0.0,291200,2.078125,2.0703125,0.7111468315124512
16-07-1980,2.046875,0.0,859200,2.0703125,2.0703125,0.7111468315124512
17-07-1980,2.0625,0.0,480000,2.0859375,2.078125,0.7138305902481079
18-07-1980,2.0703125,0.0,652800,2.1484375,2.1328125,0.7326152920722961
21-07-1980,2.1328125,0.0,268800,2.15625,2.15625,0.7406667470932007
22-07-1980,2.1484375,0.0,350400,2.171875,2.1484375,0.7379822134971619
23-07-1980,2.125,0.0,280000,2.15625,2.125,0.7299318313598633
24-07-1980,2.125,0.0,332800,2.140625,2.140625,0.7352990508079529
25-07-1980,2.125,0.0,121600,2.140625,2.1328125,0.7326152920722961
28-07-1980,2.125,0.0,355200,2.140625,2.140625,0.7352990508079529
29-07-1980,2.1328125,0.0,188800,2.171875,2.171875,0.7460335493087769
30-07-1980,2.1875,0.0,1552000,2.1953125,2.1953125,0.7540842294692993
31-07-1980,2.1875,0.0,1233600,2.2109375,2.2109375,0.7594512104988098
01-08-1980,2.21875,0.0,305600,2.234375,2.2265625,0.7648184299468994
04-08-1980,2.21875,0.0,1603200,2.2734375,2.2734375,0.7809196710586548
05-08-1980,2.2265625,0.0,1168000,2.265625,2.25,0.7728690505027771
06-08-1980,2.2421875,0.0,254400,2.2890625,2.2890625,0.7862868309020996
07-08-1980,2.25,0.0,276800,2.2734375,2.2578125,0.7755528092384338
08-08-1980,2.2578125,0.0,598400,2.28125,2.2734375,0.7809196710586548
11-08-1980,2.25,0.0,259200,2.2578125,2.2578125,0.7755528092384338
12-08-1980,2.25,0.0,1137600,2.3125,2.2734375,0.7809196710586548
13-08-1980,2.2578125,0.0,140800,2.296875,2.265625,0.778236448764801
14-08-1980,2.25,0.0,126400,2.265625,2.265625,0.778236448764801
15-08-1980,2.2578125,0.0,195200,2.2890625,2.2578125,0.7755528092384338
18-08-1980,2.203125,0.0,299200,2.25,2.203125,0.7567676901817322
19-08-1980,2.171875,0.0,622400,2.203125,2.1796875,0.7487170696258545
20-08-1980,2.1484375,0.0,259200,2.1953125,2.1953125,0.7540842294692993
21-08-1980,2.25,0.0,745600,2.28125,2.265625,0.778236448764801
22-08-1980,2.2578125,0.0,195200,2.28125,2.265625,0.778236448764801
25-08-1980,2.25,0.0,91200,2.265625,2.25,0.7728690505027771
26-08-1980,2.25,0.0,254400,2.28125,2.265625,0.778236448764801
27-08-1980,2.21875,0.0,336000,2.2578125,2.21875,0.7621347904205322
28-08-1980,2.171875,0.0,212800,2.203125,2.171875,0.7460335493087769
29-08-1980,2.15625,0.0,740800,2.1875,2.171875,0.7460335493087769
02-09-1980,2.171875,0.0,155200,2.1953125,2.1875,0.7514007091522217
03-09-1980,2.171875,0.0,1081600,2.265625,2.25,0.7728690505027771
04-09-1980,2.234375,0.0,416000,2.2734375,2.25,0.7728690505027771
05-09-1980,2.234375,0.0,731200,2.2578125,2.2578125,0.7755528092384338
08-09-1980,2.2421875,0.0,100800,2.265625,2.2421875,0.7701850533485413
09-09-1980,2.234375,0.0,91200,2.2421875,2.2421875,0.7701850533485413
10-09-1980,2.234375,0.0,83200,2.2421875,2.234375,0.7675020694732666
11-09-1980,2.234375,0.0,60800,2.25,2.25,0.7728690505027771
12-09-1980,2.2421875,0.0,128000,2.265625,2.265625,0.778236448764801
15-09-1980,2.25,0.0,236800,2.2734375,2.25,0.7728690505027771
16-09-1980,2.25,0.0,96000,2.265625,2.265625,0.778236448764801
17-09-1980,2.25,0.0,1672000,2.3359375,2.328125,0.7997048497200012
18-09-1980,2.3359375,0.0,201600,2.3671875,2.34375,0.8050719499588013
19-09-1980,2.3359375,0.0,124800,2.3515625,2.34375,0.8050719499588013
22-09-1980,2.34375,0.0,264000,2.359375,2.3515625,0.807756245136261
23-09-1980,2.3359375,0.0,488000,2.375,2.3515625,0.807756245136261
24-09-1980,2.328125,0.0,148800,2.3359375,2.328125,0.7997048497200012
25-09-1980,2.296875,0.0,265600,2.328125,2.3046875,0.7916544079780579
26-09-1980,2.2734375,0.0,352000,2.3046875,2.2890625,0.7862868309020996
29-09-1980,2.265625,0.0,428800,2.28125,2.28125,0.7836035490036011
30-09-1980,2.265625,0.0,124800,2.2890625,2.2890625,0.7862868309020996
01-10-1980,2.2578125,0.0,100800,2.28125,2.2578125,0.7755528092384338
02-10-1980,2.25,0.0,585600,2.2734375,2.2734375,0.7809196710586548
03-10-1980,2.265625,0.0,180800,2.2890625,2.28125,0.7836035490036011
06-10-1980,2.265625,0.0,121600,2.296875,2.265625,0.778236448764801
07-10-1980,2.25,0.0,459200,2.265625,2.25,0.7728690505027771
08-10-1980,2.2421875,0.0,817600,2.28125,2.28125,0.7836035490036011
09-10-1980,2.25,0.0,443200,2.28125,2.265625,0.778236448764801
10-10-1980,2.203125,0.0,796800,2.234375,2.2265625,0.7648184299468994
13-10-1980,2.2109375,0.0,97600,2.2265625,2.2265625,0.7648184299468994
14-10-1980,2.203125,0.0,224000,2.25,2.203125,0.7567676901817322
15-10-1980,2.1875,0.0,113600,2.203125,2.1953125,0.7540842294692993
16-10-1980,2.171875,0.0,425600,2.203125,2.1875,0.7514007091522217
17-10-1980,2.15625,0.0,300800,2.1875,2.1875,0.7514007091522217
20-10-1980,2.1640625,0.0,150400,2.1875,2.1875,0.7514007091522217
21-10-1980,2.1875,0.0,566400,2.25,2.25,0.7728690505027771
22-10-1980,2.2109375,0.0,172800,2.2734375,2.234375,0.7675020694732666
23-10-1980,2.234375,0.0,336000,2.265625,2.25,0.7728690505027771
24-10-1980,2.234375,0.0,168000,2.265625,2.265625,0.778236448764801
27-10-1980,2.234375,0.0,521600,2.25,2.25,0.7728690505027771
28-10-1980,2.234375,0.0,376000,2.265625,2.2578125,0.7755528092384338
29-10-1980,2.25,0.0,251200,2.265625,2.265625,0.778236448764801
30-10-1980,2.2578125,0.0,156800,2.2734375,2.265625,0.778236448764801
31-10-1980,2.25,0.0,243200,2.265625,2.265625,0.778236448764801
03-11-1980,2.2265625,0.0,1062400,2.28125,2.28125,0.7836035490036011
05-11-1980,2.2734375,0.0,1062400,2.359375,2.28125,0.7836035490036011
06-11-1980,2.28125,0.0,531200,2.3125,2.296875,0.7889704704284668
07-11-1980,2.28125,0.0,579200,2.296875,2.28125,0.7836035490036011
10-11-1980,2.2578125,0.0,180800,2.28125,2.2734375,0.7809196710586548
11-11-1980,2.265625,0.0,867200,2.28125,2.265625,0.778236448764801
12-11-1980,2.25,0.0,281600,2.28125,2.2734375,0.7809196710586548
13-11-1980,2.2578125,0.0,1980800,2.28125,2.2734375,0.7809196710586548
14-11-1980,2.2734375,0.0,702400,2.3046875,2.3046875,0.7916544079780579
17-11-1980,2.2890625,0.0,1176000,2.34375,2.328125,0.7997048497200012
18-11-1980,2.328125,0.0,164800,2.3515625,2.3359375,0.8023886680603027
19-11-1980,2.3203125,0.0,241600,2.3671875,2.359375,0.8104389905929565
20-11-1980,2.34375,0.0,377600,2.421875,2.3984375,0.8238568305969238
21-11-1980,2.3125,0.0,209600,2.3984375,2.359375,0.8104389905929565
24-11-1980,2.296875,0.0,243200,2.3828125,2.34375,0.8050719499588013
25-11-1980,2.296875,0.0,179200,2.3515625,2.3125,0.7943375706672668
26-11-1980,2.1953125,0.0,377600,2.265625,2.203125,0.7567676901817322
28-11-1980,2.171875,0.0,323200,2.203125,2.1875,0.7514007091522217
01-12-1980,2.1796875,0.0,152000,2.203125,2.1875,0.7514007091522217
02-12-1980,2.171875,0.0,244800,2.203125,2.203125,0.7567676901817322
03-12-1980,2.1875,0.0,182400,2.25,2.25,0.7728690505027771
04-12-1980,2.21875,0.0,643200,2.265625,2.25,0.7728690505027771
05-12-1980,2.234375,0.0,235200,2.25,2.2421875,0.7701850533485413
08-12-1980,2.1875,0.0,385600,2.21875,2.203125,0.7567676901817322
09-12-1980,2.1875,0.0,528000,2.203125,2.1875,0.7514007091522217
10-12-1980,2.1875,0.0,206400,2.234375,2.1953125,0.7540842294692993
11-12-1980,2.15625,0.0,456000,2.203125,2.15625,0.7406667470932007
12-12-1980,2.1484375,0.0,57600,2.171875,2.15625,0.7406667470932007
15-12-1980,2.1171875,0.0,472000,2.1484375,2.1171875,0.7272483706474304
16-12-1980,2.046875,0.0,131200,2.1015625,2.0625,0.7084634304046631
17-12-1980,2.0703125,0.0,276800,2.1015625,2.0859375,0.7165141701698303
18-12-1980,2.0625,0.0,168000,2.078125,2.0703125,0.7111468315124512
19-12-1980,2.0625,0.0,504000,2.140625,2.140625,0.7352990508079529
22-12-1980,2.125,0.0,384000,2.1640625,2.1640625,0.7433494925498962
23-12-1980,2.140625,0.0,184000,2.1875,2.15625,0.7406667470932007
24-12-1980,2.1328125,0.0,1203200,2.2421875,2.2421875,0.7701850533485413
26-12-1980,2.2265625,0.0,97600,2.265625,2.25,0.7728690505027771
29-12-1980,2.234375,0.0,324800,2.3046875,2.265625,0.778236448764801
30-12-1980,2.234375,0.0,1240000,2.328125,2.328125,0.7997048497200012
31-12-1980,2.3203125,0.0,928000,2.546875,2.546875,0.8748443722724915
02-01-1981,2.5,0.0,483200,2.546875,2.546875,0.8748443722724915
05-01-1981,2.5,0.0,1252800,2.6015625,2.515625,0.8641108274459839
06-01-1981,2.40625,0.0,296000,2.5,2.421875,0.8319078683853149
07-01-1981,2.25,0.0,540800,2.375,2.359375,0.8104389905929565
08-01-1981,2.21875,0.0,680000,2.3671875,2.296875,0.7889704704284668
09-01-1981,2.2890625,0.0,1307200,2.3984375,2.3984375,0.8238568305969238
12-01-1981,2.4375,0.0,1108800,2.5546875,2.53125,0.8694774508476257
13-01-1981,2.5,0.0,276800,2.53125,2.515625,0.8641108274459839
14-01-1981,2.5,0.0,1025600,2.578125,2.5234375,0.8667948246002197
15-01-1981,2.5,0.0,310400,2.53125,2.515625,0.8641108274459839
16-01-1981,2.5078125,0.0,820800,2.640625,2.640625,0.9070476293563843
19-01-1981,2.578125,0.0,768000,2.65625,2.625,0.9016807079315186
20-01-1981,2.640625,0.0,822400,2.671875,2.6640625,0.9150984287261963
21-01-1981,2.625,0.0,2556800,2.703125,2.6875,0.9231488704681396
22-01-1981,2.609375,0.0,1601600,2.765625,2.640625,0.9070476293563843
23-01-1981,2.578125,0.0,1859200,2.640625,2.625,0.9016807079315186
26-01-1981,2.5625,0.0,329600,2.6015625,2.5625,0.8802126049995422
27-01-1981,2.5625,0.0,753600,2.59375,2.5859375,0.8882632851600647
28-01-1981,2.578125,0.0,358400,2.6484375,2.625,0.9016807079315186
29-01-1981,2.625,0.0,262400,2.6875,2.65625,0.9124151468276978
30-01-1981,2.640625,0.0,358400,2.6953125,2.6640625,0.9150984287261963
02-02-1981,2.578125,0.0,187200,2.6484375,2.59375,0.8909461498260498
03-02-1981,2.578125,0.0,313600,2.640625,2.625,0.9016807079315186
04-02-1981,2.5703125,0.0,601600,2.65625,2.578125,0.8855794072151184
05-02-1981,2.5703125,0.0,201600,2.625,2.625,0.9016807079315186
06-02-1981,2.625,0.0,532800,2.71875,2.7109375,0.9312000274658203
09-02-1981,2.6640625,0.0,464000,2.71875,2.703125,0.9285168647766113
10-02-1981,2.6875,0.0,472000,2.71875,2.703125,0.9285168647766113
11-02-1981,2.65625,0.0,617600,2.703125,2.6875,0.9231488704681396
12-02-1981,2.625,0.0,196800,2.6796875,2.6796875,0.9204656481742859
13-02-1981,2.609375,0.0,156800,2.671875,2.640625,0.9070476293563843
17-02-1981,2.6015625,0.0,345600,2.65625,2.609375,0.8963137269020081
18-02-1981,2.5625,0.0,428800,2.640625,2.59375,0.8909461498260498
19-02-1981,2.53125,0.0,601600,2.59375,2.546875,0.8748443722724915
20-02-1981,2.5390625,0.0,329600,2.5546875,2.546875,0.8748443722724915
23-02-1981,2.546875,0.0,427200,2.5859375,2.5859375,0.8882632851600647
24-02-1981,2.59375,0.0,334400,2.6328125,2.625,0.9016807079315186
25-02-1981,2.609375,0.0,4424000,2.9375,2.9375,1.0090231895446777
26-02-1981,2.875,0.0,5041600,3.09375,3.046875,1.0465936660766602
27-02-1981,2.9921875,0.0,3398400,3.15625,3.15625,1.0841635465621948
02-03-1981,3.140625,0.0,3272000,3.234375,3.2109375,1.1029483079910278
03-03-1981,3.09375,0.0,3803200,3.234375,3.1484375,1.0814805030822754
04-03-1981,3.0625,0.0,1982400,3.125,3.125,1.0734295845031738
05-03-1981,2.984375,0.0,1225600,3.1171875,3.0,1.0304925441741943
06-03-1981,2.890625,0.0,1899200,3.0390625,3.03125,1.0412259101867676
09-03-1981,2.96875,0.0,712000,3.0625,3.0625,1.0519613027572632
10-03-1981,2.9375,0.0,497600,3.046875,2.9609375,1.0170743465423584
11-03-1981,2.9140625,0.0,1625600,2.984375,2.96875,1.0197577476501465
12-03-1981,2.9375,0.0,1329600,3.09375,3.078125,1.057328224182129
13-03-1981,3.09375,0.0,1672000,3.140625,3.125,1.0734295845031738
16-03-1981,3.0625,0.0,566400,3.140625,3.109375,1.06806218624115
17-03-1981,3.1171875,0.0,2062400,3.1875,3.1640625,1.0868468284606934
18-03-1981,3.125,0.0,1782400,3.296875,3.21875,1.1056327819824219
19-03-1981,3.171875,0.0,648000,3.265625,3.171875,1.0895311832427979
20-03-1981,3.15625,0.0,884800,3.25,3.1953125,1.0975815057754517
23-03-1981,3.171875,0.0,368000,3.234375,3.21875,1.1056327819824219
24-03-1981,3.125,0.0,760000,3.25,3.1796875,1.0922138690948486
25-03-1981,3.171875,0.0,6833600,3.4921875,3.453125,1.1861395835876465
26-03-1981,3.34375,0.0,2190400,3.46875,3.34375,1.14857017993927
27-03-1981,3.328125,0.0,1571200,3.4609375,3.390625,1.164670705795288
30-03-1981,3.28125,0.0,1011200,3.3984375,3.28125,1.1271004676818848
31-03-1981,3.328125,0.0,1208000,3.3984375,3.3828125,1.1619863510131836
01-04-1981,3.3359375,0.0,1326400,3.4375,3.40625,1.1700373888015747
02-04-1981,3.28125,0.0,723200,3.421875,3.359375,1.1539363861083984
03-04-1981,3.28125,0.0,817600,3.3671875,3.296875,1.1324687004089355
06-04-1981,3.3125,0.0,2217600,3.609375,3.609375,1.239810824394226
07-04-1981,3.515625,0.0,2635200,3.640625,3.546875,1.2183425426483154
08-04-1981,3.46875,0.0,968000,3.5859375,3.484375,1.1968731880187988
09-04-1981,3.46875,0.0,2723200,3.5625,3.515625,1.2076075077056885
10-04-1981,3.46875,0.0,1227200,3.5625,3.5625,1.2237093448638916
13-04-1981,3.5625,0.0,1553600,3.609375,3.578125,1.2290762662887573
14-04-1981,3.484375,0.0,555200,3.5625,3.5,1.2022414207458496
15-04-1981,3.4375,0.0,665600,3.5078125,3.4921875,1.1995570659637451
16-04-1981,3.4765625,0.0,716800,3.5234375,3.5234375,1.2102917432785034
20-04-1981,3.4921875,0.0,400000,3.53125,3.515625,1.2076075077056885
21-04-1981,3.296875,0.0,1460800,3.5234375,3.296875,1.1324687004089355
22-04-1981,3.28125,0.0,824000,3.3671875,3.3203125,1.140519142150879
23-04-1981,3.3125,0.0,907200,3.421875,3.3828125,1.1619863510131836
24-04-1981,3.34375,0.0,995200,3.421875,3.40625,1.1700373888015747
27-04-1981,3.375,0.0,1088000,3.453125,3.40625,1.1700373888015747
28-04-1981,3.234375,0.0,592000,3.390625,3.2890625,1.1297842264175415
29-04-1981,3.15625,0.0,633600,3.25,3.1796875,1.0922138690948486
30-04-1981,3.1640625,0.0,756800,3.2109375,3.1875,1.0948978662490845
01-05-1981,3.171875,0.0,1225600,3.296875,3.25,1.1163668632507324
04-05-1981,3.171875,0.0,536000,3.25,3.1953125,1.0975815057754517
05-05-1981,3.09375,0.0,937600,3.140625,3.1015625,1.065378189086914
06-05-1981,3.109375,0.0,716800,3.15625,3.1171875,1.0707451105117798
07-05-1981,3.109375,0.0,876800,3.203125,3.1875,1.0948978662490845
08-05-1981,3.1640625,0.0,827200,3.203125,3.1875,1.0948978662490845
11-05-1981,3.1015625,0.0,372800,3.2109375,3.1015625,1.065378189086914
12-05-1981,3.0625,0.0,782400,3.109375,3.078125,1.057328224182129
13-05-1981,3.046875,0.0,374400,3.125,3.09375,1.062695026397705
14-05-1981,3.078125,0.0,1054400,3.203125,3.125,1.0734295845031738
15-05-1981,3.109375,0.0,748800,3.15625,3.140625,1.0787967443466187
18-05-1981,3.1171875,0.0,348800,3.1484375,3.1328125,1.0761131048202515
19-05-1981,3.125,0.0,654400,3.203125,3.1875,1.0948978662490845
20-05-1981,3.203125,0.0,1464000,3.40625,3.3984375,1.1673541069030762
21-05-1981,3.3203125,0.0,801600,3.3984375,3.375,1.1593035459518433
22-05-1981,3.296875,0.0,388800,3.3671875,3.328125,1.1432021856307983
26-05-1981,3.2890625,0.0,444800,3.328125,3.328125,1.1432021856307983
27-05-1981,3.265625,0.0,400000,3.359375,3.2734375,1.1244169473648071
28-05-1981,3.234375,0.0,273600,3.296875,3.234375,1.1109997034072876
29-05-1981,3.171875,0.0,212800,3.21875,3.203125,1.1002649068832397
01-06-1981,3.140625,0.0,1132800,3.2421875,3.140625,1.0787967443466187
02-06-1981,3.0,0.0,675200,3.125,3.0625,1.0519613027572632
03-06-1981,2.9375,0.0,411200,3.046875,2.9609375,1.0170743465423584
04-06-1981,2.9453125,0.0,344000,2.9765625,2.96875,1.0197577476501465
05-06-1981,2.921875,0.0,1054400,3.0390625,3.03125,1.0412259101867676
08-06-1981,3.015625,0.0,347200,3.078125,3.03125,1.0412259101867676
09-06-1981,3.0,0.0,750400,3.078125,3.046875,1.0465936660766602
10-06-1981,3.0,0.0,369600,3.0859375,3.0625,1.0519613027572632
11-06-1981,3.078125,0.0,139200,3.15625,3.15625,1.0841635465621948
12-06-1981,3.0859375,0.0,171200,3.140625,3.09375,1.062695026397705
15-06-1981,3.078125,0.0,233600,3.140625,3.140625,1.0787967443466187
16-06-1981,3.1015625,0.0,150400,3.1328125,3.109375,1.06806218624115
17-06-1981,3.0546875,0.0,256000,3.09375,3.078125,1.057328224182129
18-06-1981,3.0078125,0.0,185600,3.078125,3.015625,1.0358591079711914
19-06-1981,2.9375,0.0,196800,3.0,2.953125,1.014390230178833
22-06-1981,2.9375,0.0,363200,2.984375,2.9609375,1.0170743465423584
23-06-1981,2.9453125,0.0,195200,2.9921875,2.96875,1.0197577476501465
24-06-1981,2.90625,0.0,224000,2.9765625,2.9375,1.0090231895446777
25-06-1981,2.921875,0.0,192000,2.9609375,2.9375,1.0090231895446777
26-06-1981,2.828125,0.0,332800,2.9296875,2.875,0.987554669380188
29-06-1981,2.875,0.0,454400,2.921875,2.9140625,1.000973105430603
30-06-1981,2.9140625,0.0,284800,2.9609375,2.9375,1.0090231895446777
01-07-1981,2.921875,0.0,190400,2.953125,2.9453125,1.0117067098617554
02-07-1981,2.921875,0.0,67200,2.953125,2.9375,1.0090231895446777
06-07-1981,2.890625,0.0,198400,2.9296875,2.90625,0.9982889890670776
07-07-1981,2.796875,0.0,302400,2.8984375,2.8046875,0.9634028673171997
08-07-1981,2.7421875,0.0,870400,2.8125,2.765625,0.9499854445457458
09-07-1981,2.71875,0.0,662400,2.75,2.75,0.9446172714233398
10-07-1981,2.7109375,0.0,360000,2.7578125,2.71875,0.9338836073875427
13-07-1981,2.6875,0.0,428800,2.7265625,2.6953125,0.9258326292037964
14-07-1981,2.6875,0.0,577600,2.7109375,2.703125,0.9285168647766113
15-07-1981,2.6953125,0.0,2560000,2.875,2.796875,0.960719108581543
16-07-1981,2.796875,0.0,1044800,2.8359375,2.8359375,0.9741372466087341
17-07-1981,2.828125,0.0,542400,2.8984375,2.84375,0.9768207669258118
20-07-1981,2.75,0.0,889600,2.84375,2.765625,0.9499854445457458
21-07-1981,2.7421875,0.0,651200,2.8125,2.7421875,0.9419339299201965
22-07-1981,2.703125,0.0,379200,2.765625,2.703125,0.9285168647766113
23-07-1981,2.671875,0.0,664000,2.7578125,2.7265625,0.936567485332489
24-07-1981,2.71875,0.0,174400,2.765625,2.75,0.9446172714233398
27-07-1981,2.71875,0.0,350400,2.78125,2.71875,0.9338836073875427
28-07-1981,2.703125,0.0,1201600,2.78125,2.78125,0.9553527235984802
29-07-1981,2.78125,0.0,1441600,2.8359375,2.796875,0.960719108581543
30-07-1981,2.7734375,0.0,329600,2.8203125,2.7890625,0.9580355882644653
31-07-1981,2.78125,0.0,241600,2.8125,2.78125,0.9553527235984802
03-08-1981,2.7734375,0.0,460800,2.8125,2.796875,0.960719108581543
04-08-1981,2.7578125,0.0,310400,2.8125,2.796875,0.960719108581543
05-08-1981,2.796875,0.0,454400,2.890625,2.890625,0.9929227828979492
06-08-1981,2.859375,0.0,1337600,2.9453125,2.875,0.987554669380188
07-08-1981,2.8359375,0.0,129600,2.890625,2.8515625,0.9795045852661133
10-08-1981,2.8359375,0.0,798400,2.875,2.875,0.987554669380188
11-08-1981,2.890625,0.0,822400,2.96875,2.953125,1.014390230178833
12-08-1981,2.875,0.0,324800,2.984375,2.8828125,0.9902387261390686
13-08-1981,2.8359375,0.0,112000,2.875,2.859375,0.9821875691413879
14-08-1981,2.8515625,0.0,268800,2.9296875,2.90625,0.9982889890670776
17-08-1981,2.8515625,0.0,265600,2.921875,2.8828125,0.9902387261390686
18-08-1981,2.8125,0.0,1198400,2.8828125,2.8359375,0.9741372466087341
19-08-1981,2.828125,0.0,326400,2.859375,2.859375,0.9821875691413879
20-08-1981,2.8515625,0.0,166400,2.8671875,2.8515625,0.9795045852661133
21-08-1981,2.828125,0.0,675200,2.859375,2.8359375,0.9741372466087341
24-08-1981,2.828125,0.0,747200,2.8515625,2.8515625,0.9795045852661133
25-08-1981,2.8359375,0.0,464000,2.8984375,2.8828125,0.9902387261390686
26-08-1981,2.8671875,0.0,120000,2.890625,2.8671875,0.9848716855049133
27-08-1981,2.8671875,0.0,112000,2.875,2.8671875,0.9848716855049133
28-08-1981,2.8671875,0.0,248000,2.875,2.8671875,0.9848716855049133
31-08-1981,2.859375,0.0,196800,2.8671875,2.859375,0.9821875691413879
01-09-1981,2.8671875,0.0,342400,2.875,2.8671875,0.9848716855049133
02-09-1981,2.875,0.0,153600,2.8984375,2.8828125,0.9902387261390686
03-09-1981,2.859375,0.0,315200,2.890625,2.859375,0.9821875691413879
04-09-1981,2.796875,0.0,465600,2.84375,2.8125,0.9660863876342773
08-09-1981,2.65625,0.0,449600,2.7890625,2.6953125,0.9258326292037964
09-09-1981,2.6640625,0.0,278400,2.703125,2.6875,0.9231488704681396
10-09-1981,2.6875,0.0,217600,2.7578125,2.7265625,0.936567485332489
11-09-1981,2.6875,0.0,230400,2.7265625,2.703125,0.9285168647766113
14-09-1981,2.6953125,0.0,393600,2.71875,2.7109375,0.9312000274658203
15-09-1981,2.703125,0.0,355200,2.75,2.703125,0.9285168647766113
16-09-1981,2.703125,0.0,403200,2.734375,2.734375,0.9392502903938293
17-09-1981,2.7109375,0.0,89600,2.734375,2.7109375,0.9312000274658203
18-09-1981,2.6328125,0.0,1006400,2.703125,2.640625,0.9070476293563843
21-09-1981,2.640625,0.0,283200,2.6484375,2.6484375,0.9097313284873962
22-09-1981,2.6328125,0.0,240000,2.6484375,2.6484375,0.9097313284873962
23-09-1981,2.59375,0.0,523200,2.625,2.609375,0.8963137269020081
24-09-1981,2.578125,0.0,484800,2.640625,2.59375,0.8909461498260498
25-09-1981,2.4609375,0.0,366400,2.59375,2.46875,0.8480092883110046
28-09-1981,2.390625,0.0,694400,2.546875,2.546875,0.8748443722724915
29-09-1981,2.5625,0.0,737600,2.625,2.5625,0.8802126049995422
30-09-1981,2.5,0.0,313600,2.5546875,2.515625,0.8641108274459839
01-10-1981,2.453125,0.0,964800,2.5234375,2.4921875,0.8560601472854614
02-10-1981,2.4765625,0.0,2206400,2.5234375,2.5234375,0.8667948246002197
05-10-1981,2.4765625,0.0,516800,2.53125,2.4921875,0.8560601472854614
06-10-1981,2.421875,0.0,513600,2.4921875,2.4375,0.837274968624115
07-10-1981,2.40625,0.0,182400,2.4375,2.421875,0.8319078683853149
08-10-1981,2.40625,0.0,644800,2.4609375,2.453125,0.8426423668861389
09-10-1981,2.421875,0.0,329600,2.453125,2.4375,0.837274968624115
12-10-1981,2.4140625,0.0,387200,2.4375,2.4375,0.837274968624115
13-10-1981,2.421875,0.0,110400,2.4453125,2.4296875,0.834591269493103
14-10-1981,2.421875,0.0,70400,2.4375,2.421875,0.8319078683853149
15-10-1981,2.421875,0.0,132800,2.4375,2.4296875,0.834591269493103
16-10-1981,2.4296875,0.0,1144000,2.453125,2.4296875,0.834591269493103
19-10-1981,2.4140625,0.0,216000,2.4453125,2.4453125,0.8399585485458374
20-10-1981,2.390625,0.0,1475200,2.421875,2.390625,0.8211737871170044
21-10-1981,2.375,0.0,419200,2.4140625,2.390625,0.8211737871170044
22-10-1981,2.3125,0.0,283200,2.3828125,2.34375,0.8050719499588013
23-10-1981,2.2890625,0.0,372800,2.359375,2.296875,0.7889704704284668
26-10-1981,2.2890625,0.0,108800,2.328125,2.3046875,0.7916544079780579
27-10-1981,2.3046875,0.0,153600,2.3671875,2.3515625,0.807756245136261
28-10-1981,2.3515625,0.0,648000,2.421875,2.3828125,0.8184898495674133
29-10-1981,2.3515625,0.0,318400,2.3828125,2.359375,0.8104389905929565
30-10-1981,2.3515625,0.0,491200,2.390625,2.390625,0.8211737871170044
02-11-1981,2.4140625,0.0,1241600,2.46875,2.4375,0.837274968624115
03-11-1981,2.4453125,0.0,411200,2.53125,2.53125,0.8694774508476257
04-11-1981,2.5,0.0,1062400,2.53125,2.5078125,0.8614268898963928
05-11-1981,2.5078125,0.0,451200,2.5625,2.546875,0.8748443722724915
06-11-1981,2.515625,0.0,161600,2.5703125,2.5625,0.8802126049995422
09-11-1981,2.5390625,0.0,91200,2.5703125,2.5703125,0.8828958868980408
10-11-1981,2.59375,0.0,137600,2.6171875,2.59375,0.8909461498260498
11-11-1981,2.59375,0.0,331200,2.6171875,2.6171875,0.8989970684051514
12-11-1981,2.59375,0.0,236800,2.640625,2.609375,0.8963137269020081
13-11-1981,2.53125,0.0,358400,2.59375,2.5546875,0.8775287866592407
16-11-1981,2.453125,0.0,284800,2.53125,2.4765625,0.8506926894187927
17-11-1981,2.46875,0.0,500800,2.5,2.4921875,0.8560601472854614
18-11-1981,2.46875,0.0,926400,2.5,2.46875,0.8480092883110046
19-11-1981,2.4609375,0.0,518400,2.484375,2.4765625,0.8506926894187927
20-11-1981,2.4765625,0.0,86400,2.5,2.5,0.8587431907653809
23-11-1981,2.4453125,0.0,190400,2.4921875,2.4609375,0.8453254103660583
24-11-1981,2.4453125,0.0,150400,2.46875,2.4609375,0.8453254103660583
25-11-1981,2.4453125,0.0,1275200,2.484375,2.453125,0.8426423668861389
27-11-1981,2.453125,0.0,196800,2.4765625,2.4765625,0.8506926894187927
30-11-1981,2.4609375,0.0,275200,2.53125,2.515625,0.8641108274459839
01-12-1981,2.453125,0.0,657600,2.5234375,2.484375,0.8533762693405151
02-12-1981,2.4453125,0.0,364800,2.5078125,2.484375,0.8533762693405151
03-12-1981,2.4765625,0.0,422400,2.515625,2.515625,0.8641108274459839
04-12-1981,2.5,0.0,1816000,2.53125,2.515625,0.8641108274459839
07-12-1981,2.46875,0.0,400000,2.53125,2.4921875,0.8560601472854614
08-12-1981,2.4609375,0.0,201600,2.4921875,2.46875,0.8480092883110046
09-12-1981,2.4609375,0.0,347200,2.4921875,2.484375,0.8533762693405151
10-12-1981,2.4609375,0.0,403200,2.5,2.4921875,0.8560601472854614
11-12-1981,2.484375,0.0,281600,2.515625,2.515625,0.8641108274459839
14-12-1981,2.4375,0.0,860800,2.4921875,2.453125,0.8426423668861389
15-12-1981,2.390625,0.0,264000,2.453125,2.4453125,0.8399585485458374
16-12-1981,2.4375,0.0,113600,2.453125,2.4453125,0.8399585485458374
17-12-1981,2.4375,0.0,363200,2.453125,2.4375,0.837274968624115
18-12-1981,2.421875,0.0,209600,2.4453125,2.421875,0.8319078683853149
21-12-1981,2.375,0.0,670400,2.4375,2.375,0.8158066868782043
22-12-1981,2.359375,0.0,240000,2.390625,2.375,0.8158066868782043
23-12-1981,2.3515625,0.0,388800,2.3828125,2.375,0.8158066868782043
24-12-1981,2.3671875,0.0,520000,2.3828125,2.3828125,0.8184898495674133
28-12-1981,2.3125,0.0,1014400,2.375,2.3125,0.7943375706672668
29-12-1981,2.3125,0.0,248000,2.328125,2.3125,0.7943375706672668
30-12-1981,2.3125,0.0,195200,2.3359375,2.328125,0.7997048497200012
31-12-1981,2.21875,0.0,580800,2.375,2.359375,0.8104389905929565
04-01-1982,2.3359375,0.0,728000,2.3671875,2.3671875,0.8131227493286133
05-01-1982,2.296875,0.0,278400,2.359375,2.328125,0.7997048497200012
06-01-1982,2.2890625,0.0,336000,2.328125,2.328125,0.7997048497200012
07-01-1982,2.28125,0.0,408000,2.3359375,2.296875,0.7889704704284668
08-01-1982,2.2578125,0.0,228800,2.3125,2.265625,0.778236448764801
11-01-1982,2.1875,0.0,5382400,2.265625,2.1875,0.7514007091522217
12-01-1982,2.15625,0.0,358400,2.2109375,2.203125,0.7567676901817322
13-01-1982,2.171875,0.0,507200,2.21875,2.1875,0.7514007091522217
14-01-1982,2.15625,0.0,177600,2.1796875,2.1796875,0.7487170696258545
15-01-1982,2.140625,0.0,291200,2.1875,2.15625,0.7406667470932007
18-01-1982,2.0,0.0,10244800,2.1328125,2.0625,0.7084634304046631
19-01-1982,2.0390625,0.0,312000,2.0859375,2.0546875,0.7057793736457825
20-01-1982,2.0234375,0.0,492800,2.0625,2.046875,0.7030964493751526
21-01-1982,2.0234375,0.0,321600,2.046875,2.046875,0.7030964493751526
22-01-1982,2.0,0.0,1499200,2.03125,2.03125,0.6977289915084839
25-01-1982,2.0,0.0,403200,2.03125,2.015625,0.6923618316650391
26-01-1982,1.96875,0.0,1643200,2.015625,2.0,0.6869947910308838
27-01-1982,1.9921875,0.0,345600,2.0078125,2.0078125,0.6896783709526062
28-01-1982,1.9921875,0.0,492800,2.0390625,2.0390625,0.700412392616272
29-01-1982,2.0625,0.0,1184000,2.09375,2.0859375,0.7165141701698303
01-02-1982,2.03125,0.0,243200,2.078125,2.046875,0.7030964493751526
02-02-1982,2.0078125,0.0,283200,2.0625,2.0625,0.7084634304046631
03-02-1982,2.0390625,0.0,523200,2.0703125,2.0703125,0.7111468315124512
04-02-1982,2.046875,0.0,222400,2.078125,2.078125,0.7138305902481079
05-02-1982,2.0703125,0.0,353600,2.1484375,2.1484375,0.7379822134971619
08-02-1982,2.078125,0.0,721600,2.125,2.078125,0.7138305902481079
09-02-1982,2.015625,0.0,203200,2.046875,2.0390625,0.700412392616272
10-02-1982,2.015625,0.0,596800,2.0390625,2.0390625,0.700412392616272
11-02-1982,1.9296875,0.0,480000,2.0390625,1.953125,0.6708932518959045
12-02-1982,1.9375,0.0,304000,1.9765625,1.9765625,0.6789442896842957
16-02-1982,1.9375,0.0,512000,1.984375,1.984375,0.6816272139549255
17-02-1982,1.9609375,0.0,233600,2.0,1.9765625,0.6789442896842957
18-02-1982,1.9375,0.0,363200,1.9765625,1.9765625,0.6789442896842957
19-02-1982,1.9453125,0.0,192000,1.984375,1.96875,0.6762601733207703
22-02-1982,1.9375,0.0,1331200,2.0234375,1.9453125,0.6682098507881165
23-02-1982,1.9453125,0.0,182400,1.96875,1.9609375,0.6735766530036926
24-02-1982,1.921875,0.0,2142400,1.9609375,1.953125,0.6708932518959045
25-02-1982,1.953125,0.0,889600,1.9765625,1.953125,0.6708932518959045
26-02-1982,1.9453125,0.0,939200,1.96875,1.9609375,0.6735766530036926
01-03-1982,1.9375,0.0,419200,1.96875,1.9375,0.6655261516571045
02-03-1982,1.921875,0.0,336000,1.953125,1.9296875,0.6628423929214478
03-03-1982,1.890625,0.0,409600,1.9296875,1.90625,0.6547918915748596
04-03-1982,1.8828125,0.0,235200,1.921875,1.890625,0.6494247913360596
05-03-1982,1.875,0.0,265600,1.90625,1.875,0.6440576910972595
08-03-1982,1.84375,0.0,560000,1.8828125,1.84375,0.6333234906196594
09-03-1982,1.8125,0.0,1928000,1.8515625,1.828125,0.6279563903808594
10-03-1982,1.8203125,0.0,656000,1.859375,1.859375,0.6386908292770386
11-03-1982,1.84375,0.0,712000,1.9375,1.9375,0.6655261516571045
12-03-1982,1.90625,0.0,336000,1.9609375,1.9609375,0.6735766530036926
15-03-1982,1.9453125,0.0,176000,2.0,1.9921875,0.684311032295227
16-03-1982,1.9765625,0.0,998400,2.0078125,2.0078125,0.6896783709526062
17-03-1982,1.96875,0.0,952000,2.0234375,2.0,0.6869947910308838
18-03-1982,1.9375,0.0,616000,2.0,1.96875,0.6762601733207703
19-03-1982,1.9375,0.0,812800,1.96875,1.96875,0.6762601733207703
22-03-1982,1.9375,0.0,342400,1.96875,1.9609375,0.6735766530036926
23-03-1982,1.9609375,0.0,1097600,2.015625,1.9921875,0.684311032295227
24-03-1982,2.0,0.0,291200,2.03125,2.015625,0.6923618316650391
25-03-1982,1.96875,0.0,1993600,2.0,1.9921875,0.684311032295227
26-03-1982,1.953125,0.0,265600,1.9921875,1.9609375,0.6735766530036926
29-03-1982,1.9609375,0.0,44800,1.984375,1.984375,0.6816272139549255
30-03-1982,1.9765625,0.0,248000,2.0078125,1.9921875,0.684311032295227
31-03-1982,1.96875,0.0,72000,1.984375,1.9765625,0.6789442896842957
01-04-1982,1.96875,0.0,228800,2.0,2.0,0.6869947910308838
02-04-1982,1.9765625,0.0,385600,2.015625,2.0078125,0.6896783709526062
05-04-1982,2.0,0.0,372800,2.03125,2.0078125,0.6896783709526062
06-04-1982,2.0078125,0.0,211200,2.0234375,2.015625,0.6923618316650391
07-04-1982,2.0078125,0.0,254400,2.03125,2.03125,0.6977289915084839
08-04-1982,2.015625,0.0,155200,2.046875,2.0234375,0.6950454115867615
12-04-1982,2.0078125,0.0,131200,2.0390625,2.0234375,0.6950454115867615
13-04-1982,2.0234375,0.0,312000,2.046875,2.0390625,0.700412392616272
14-04-1982,2.0234375,0.0,408000,2.0546875,2.0546875,0.7057793736457825
15-04-1982,2.0,0.0,2214400,2.0546875,2.0078125,0.6896783709526062
16-04-1982,1.984375,0.0,672000,2.015625,2.0,0.6869947910308838
19-04-1982,1.9921875,0.0,412800,2.015625,2.015625,0.6923618316650391
20-04-1982,2.0,0.0,228800,2.015625,2.015625,0.6923618316650391
21-04-1982,2.0,0.0,352000,2.03125,2.015625,0.6923618316650391
22-04-1982,2.0,0.0,467200,2.03125,2.015625,0.6923618316650391
23-04-1982,2.0078125,0.0,787200,2.0546875,2.0546875,0.7057793736457825
26-04-1982,2.0703125,0.0,516800,2.1171875,2.1171875,0.7272483706474304
27-04-1982,2.109375,0.0,404800,2.15625,2.1171875,0.7272483706474304
28-04-1982,2.1171875,0.0,116800,2.1484375,2.125,0.7299318313598633
29-04-1982,2.078125,0.0,249600,2.125,2.0859375,0.7165141701698303
30-04-1982,2.046875,0.0,862400,2.1328125,2.1328125,0.7326152920722961
03-05-1982,2.09375,0.0,3374400,2.1640625,2.15625,0.7406667470932007
04-05-1982,2.1015625,0.0,3448000,2.15625,2.1171875,0.7272483706474304
05-05-1982,2.09375,0.0,745600,2.140625,2.1171875,0.7272483706474304
06-05-1982,2.1015625,0.0,491200,2.140625,2.109375,0.7245646119117737
07-05-1982,2.09375,0.0,235200,2.125,2.109375,0.7245646119117737
10-05-1982,2.09375,0.0,78400,2.125,2.1015625,0.7218809723854065
11-05-1982,2.1015625,0.0,164800,2.140625,2.1328125,0.7326152920722961
12-05-1982,2.1171875,0.0,316800,2.171875,2.140625,0.7352990508079529
13-05-1982,2.0625,0.0,2137600,2.1484375,2.078125,0.7138305902481079
14-05-1982,2.0625,0.0,3348800,2.109375,2.109375,0.7245646119117737
17-05-1982,2.09375,0.0,280000,2.125,2.109375,0.7245646119117737
18-05-1982,2.1015625,0.0,369600,2.125,2.109375,0.7245646119117737
19-05-1982,2.109375,0.0,539200,2.15625,2.125,0.7299318313598633
20-05-1982,2.1015625,0.0,315200,2.140625,2.140625,0.7352990508079529
21-05-1982,2.09375,0.0,737600,2.140625,2.125,0.7299318313598633
24-05-1982,2.09375,0.0,81600,2.125,2.1015625,0.7218809723854065
25-05-1982,2.0703125,0.0,195200,2.109375,2.0859375,0.7165141701698303
26-05-1982,2.0703125,0.0,376000,2.09375,2.0703125,0.7111468315124512
27-05-1982,2.015625,0.0,241600,2.0703125,2.0703125,0.7111468315124512
28-05-1982,2.0546875,0.0,100800,2.0859375,2.078125,0.7138305902481079
01-06-1982,1.96875,0.0,196800,2.0859375,1.984375,0.6816272139549255
02-06-1982,1.984375,0.0,427200,2.03125,2.03125,0.6977289915084839
03-06-1982,2.0,0.0,928000,2.078125,2.015625,0.6923618316650391
04-06-1982,1.921875,0.0,1617600,2.0,1.9375,0.6655261516571045
07-06-1982,1.9140625,0.0,307200,1.953125,1.921875,0.6601589322090149
08-06-1982,1.890625,0.0,337600,1.921875,1.8984375,0.6521084308624268
09-06-1982,1.828125,0.0,2569600,1.890625,1.8359375,0.6306398510932922
10-06-1982,1.8203125,0.0,107200,1.875,1.8671875,0.641374409198761
11-06-1982,1.8984375,0.0,646400,1.9140625,1.9140625,0.6574758291244507
14-06-1982,1.890625,0.0,726400,1.921875,1.921875,0.6601589322090149
15-06-1982,1.890625,0.0,846400,1.921875,1.921875,0.6601589322090149
16-06-1982,1.921875,0.0,409600,1.9453125,1.9375,0.6655261516571045
17-06-1982,1.90625,0.0,161600,1.9296875,1.9296875,0.6628423929214478
18-06-1982,1.90625,0.0,121600,1.9453125,1.921875,0.6601589322090149
21-06-1982,1.8828125,0.0,140800,1.921875,1.8984375,0.6521084308624268
22-06-1982,1.8828125,0.0,100800,1.90625,1.90625,0.6547918915748596
23-06-1982,1.9140625,0.0,182400,1.9609375,1.953125,0.6708932518959045
24-06-1982,1.953125,0.0,635200,1.9921875,1.9609375,0.6735766530036926
25-06-1982,1.9453125,0.0,168000,1.984375,1.9765625,0.6789442896842957
28-06-1982,1.984375,0.0,752000,2.0234375,2.0,0.6869947910308838
29-06-1982,2.0,0.0,566400,2.09375,2.09375,0.719197690486908
30-06-1982,2.03125,0.0,728000,2.0859375,2.078125,0.7138305902481079
01-07-1982,2.0625,0.0,1262400,2.0859375,2.0859375,0.7165141701698303
02-07-1982,2.0703125,0.0,228800,2.078125,2.078125,0.7138305902481079
06-07-1982,2.046875,0.0,910400,2.0859375,2.046875,0.7030964493751526
07-07-1982,2.0,0.0,244800,2.0625,2.0,0.6869947910308838
08-07-1982,2.0,0.0,256000,2.046875,2.0390625,0.700412392616272
09-07-1982,2.0390625,0.0,971200,2.0625,2.0625,0.7084634304046631
12-07-1982,2.046875,0.0,321600,2.09375,2.0625,0.7084634304046631
13-07-1982,2.046875,0.0,1595200,2.0703125,2.046875,0.7030964493751526
14-07-1982,2.0,0.0,80000,2.03125,2.015625,0.6923618316650391
15-07-1982,2.0,0.0,219200,2.046875,2.03125,0.6977289915084839
16-07-1982,2.0,0.0,1366400,2.03125,2.0234375,0.6950454115867615
19-07-1982,2.03125,0.0,1960000,2.0625,2.046875,0.7030964493751526
20-07-1982,2.046875,0.0,907200,2.09375,2.0859375,0.7165141701698303
21-07-1982,2.09375,0.0,1259200,2.1796875,2.171875,0.7460335493087769
22-07-1982,2.1640625,0.0,206400,2.21875,2.203125,0.7567676901817322
23-07-1982,2.171875,0.0,185600,2.2265625,2.1875,0.7514007091522217
26-07-1982,2.1875,0.0,324800,2.2421875,2.2421875,0.7701850533485413
27-07-1982,2.2109375,0.0,184000,2.2265625,2.2265625,0.7648184299468994
28-07-1982,2.1328125,0.0,358400,2.21875,2.140625,0.7352990508079529
29-07-1982,2.109375,0.0,401600,2.203125,2.203125,0.7567676901817322
30-07-1982,2.1953125,0.0,336000,2.2265625,2.2265625,0.7648184299468994
02-08-1982,2.21875,0.0,564800,2.28125,2.2734375,0.7809196710586548
03-08-1982,2.234375,0.0,1036800,2.28125,2.25,0.7728690505027771
04-08-1982,2.140625,0.0,4504000,2.203125,2.1484375,0.7379822134971619
05-08-1982,2.09375,0.0,241600,2.140625,2.1171875,0.7272483706474304
06-08-1982,2.03125,0.0,753600,2.1171875,2.03125,0.6977289915084839
09-08-1982,2.0078125,0.0,225600,2.0546875,2.0546875,0.7057793736457825
10-08-1982,2.046875,0.0,363200,2.078125,2.078125,0.7138305902481079
11-08-1982,2.0703125,0.0,219200,2.0859375,2.078125,0.7138305902481079
12-08-1982,2.0703125,0.0,756800,2.1015625,2.0859375,0.7165141701698303
13-08-1982,2.0859375,0.0,801600,2.1171875,2.109375,0.7245646119117737
16-08-1982,2.1015625,0.0,670400,2.1328125,2.1171875,0.7272483706474304
17-08-1982,2.125,0.0,614400,2.1796875,2.1796875,0.7487170696258545
18-08-1982,2.25,0.0,2147200,2.34375,2.296875,0.7889704704284668
19-08-1982,2.28125,0.0,1566400,2.3125,2.3125,0.7943375706672668
20-08-1982,2.328125,0.0,1852800,2.484375,2.4375,0.837274968624115
23-08-1982,2.4140625,0.0,1672000,2.5,2.421875,0.8319078683853149
24-08-1982,2.375,0.0,1491200,2.4375,2.40625,0.8265406489372253
25-08-1982,2.375,0.0,1664000,2.5078125,2.4375,0.837274968624115
26-08-1982,2.40625,0.0,1835200,2.53125,2.4453125,0.8399585485458374
27-08-1982,2.375,0.0,1766400,2.453125,2.40625,0.8265406489372253
30-08-1982,2.40625,0.0,1560000,2.515625,2.515625,0.8641108274459839
31-08-1982,2.53125,0.0,1078400,2.59375,2.53125,0.8694774508476257
01-09-1982,2.515625,0.0,611200,2.5625,2.515625,0.8641108274459839
02-09-1982,2.390625,0.0,681600,2.5234375,2.4765625,0.8506926894187927
03-09-1982,2.4921875,0.0,932800,2.5546875,2.5390625,0.8721615076065063
07-09-1982,2.53125,0.0,1057600,2.5625,2.546875,0.8748443722724915
08-09-1982,2.53125,0.0,369600,2.5546875,2.53125,0.8694774508476257
09-09-1982,2.53125,0.0,905600,2.5546875,2.53125,0.8694774508476257
10-09-1982,2.4453125,0.0,1099200,2.53125,2.484375,0.8533762693405151
13-09-1982,2.40625,0.0,2040000,2.4921875,2.484375,0.8533762693405151
14-09-1982,2.4765625,0.0,827200,2.5390625,2.484375,0.8533762693405151
15-09-1982,2.453125,0.0,534400,2.515625,2.515625,0.8641108274459839
16-09-1982,2.4609375,0.0,1214400,2.53125,2.4921875,0.8560601472854614
17-09-1982,2.4453125,0.0,1208000,2.515625,2.46875,0.8480092883110046
20-09-1982,2.4375,0.0,584000,2.4921875,2.4921875,0.8560601472854614
21-09-1982,2.4765625,0.0,1401600,2.515625,2.515625,0.8641108274459839
22-09-1982,2.578125,0.0,2398400,2.6171875,2.5859375,0.8882632851600647
23-09-1982,2.5390625,0.0,457600,2.5625,2.5625,0.8802126049995422
24-09-1982,2.53125,0.0,444800,2.5625,2.5625,0.8802126049995422
27-09-1982,2.53125,0.0,627200,2.5625,2.546875,0.8748443722724915
28-09-1982,2.546875,0.0,1088000,2.59375,2.546875,0.8748443722724915
29-09-1982,2.5,0.0,868800,2.5625,2.5,0.8587431907653809
30-09-1982,2.421875,0.0,380800,2.484375,2.4609375,0.8453254103660583
01-10-1982,2.4453125,0.0,617600,2.5,2.5,0.8587431907653809
04-10-1982,2.4765625,0.0,1147200,2.515625,2.5078125,0.8614268898963928
05-10-1982,2.5,0.0,1032000,2.53125,2.515625,0.8641108274459839
06-10-1982,2.515625,0.0,1368000,2.5703125,2.5625,0.8802126049995422
07-10-1982,2.5625,0.0,841600,2.625,2.609375,0.8963137269020081
08-10-1982,2.578125,0.0,324800,2.609375,2.59375,0.8909461498260498
11-10-1982,2.5859375,0.0,542400,2.640625,2.6171875,0.8989970684051514
12-10-1982,2.625,0.0,1148800,2.6796875,2.6796875,0.9204656481742859
13-10-1982,2.671875,0.0,668800,2.84375,2.828125,0.9714540839195251
14-10-1982,2.65625,0.0,795200,2.84375,2.65625,0.9124151468276978
15-10-1982,2.59375,0.0,521600,2.65625,2.6328125,0.904363751411438
18-10-1982,2.6484375,0.0,326400,2.734375,2.734375,0.9392502903938293
19-10-1982,2.75,0.0,448000,2.8125,2.8046875,0.9634028673171997
20-10-1982,2.8125,0.0,1268800,2.9375,2.875,0.987554669380188
21-10-1982,2.9140625,0.0,7321600,3.0234375,2.96875,1.0197577476501465
22-10-1982,3.046875,0.0,2614400,3.140625,3.0703125,1.054644227027893
25-10-1982,2.875,0.0,764800,3.0625,2.890625,0.9929227828979492
26-10-1982,2.828125,0.0,988800,2.921875,2.921875,1.0036557912826538
27-10-1982,2.984375,0.0,780800,3.0703125,3.0703125,1.054644227027893
28-10-1982,3.0546875,0.0,1020800,3.0859375,3.0625,1.0519613027572632
29-10-1982,2.96875,0.0,1156800,3.0703125,3.0078125,1.0331758260726929
01-11-1982,2.9453125,0.0,1216000,3.0078125,3.0,1.0304925441741943
02-11-1982,2.9765625,0.0,1259200,3.0390625,3.015625,1.0358591079711914
03-11-1982,3.015625,0.0,1827200,3.1796875,3.15625,1.0841635465621948
04-11-1982,3.234375,0.0,2828800,3.3515625,3.25,1.1163668632507324
05-11-1982,3.09375,0.0,1425600,3.3359375,3.3359375,1.1458854675292969
08-11-1982,3.1875,0.0,732800,3.3046875,3.2734375,1.1244169473648071
09-11-1982,3.21875,0.0,1198400,3.296875,3.21875,1.1056327819824219
10-11-1982,3.21875,0.0,739200,3.2734375,3.234375,1.1109997034072876
11-11-1982,3.15625,0.0,705600,3.21875,3.1640625,1.0868468284606934
12-11-1982,3.1640625,0.0,312000,3.203125,3.171875,1.0895311832427979
15-11-1982,3.03125,0.0,1032000,3.171875,3.0625,1.0519613027572632
16-11-1982,3.015625,0.0,918400,3.09375,3.0625,1.0519613027572632
17-11-1982,3.078125,0.0,1840000,3.140625,3.109375,1.06806218624115
18-11-1982,3.09375,0.0,504000,3.1484375,3.140625,1.0787967443466187
19-11-1982,3.109375,0.0,796800,3.1875,3.109375,1.06806218624115
22-11-1982,3.078125,0.0,769600,3.2109375,3.078125,1.057328224182129
23-11-1982,2.921875,0.0,617600,3.125,2.921875,1.0036557912826538
24-11-1982,2.9375,0.0,529600,3.0625,3.0390625,1.0439096689224243
26-11-1982,3.0546875,0.0,344000,3.125,3.109375,1.06806218624115
29-11-1982,3.1171875,0.0,272000,3.171875,3.140625,1.0787967443466187
30-11-1982,3.109375,0.0,496000,3.171875,3.140625,1.0787967443466187
01-12-1982,3.1875,0.0,611200,3.234375,3.203125,1.1002649068832397
02-12-1982,3.203125,0.0,649600,3.28125,3.234375,1.1109997034072876
03-12-1982,3.1875,0.0,412800,3.25,3.21875,1.1056327819824219
06-12-1982,3.21875,0.0,459200,3.265625,3.25,1.1163668632507324
07-12-1982,3.25,0.0,1816000,3.3125,3.265625,1.121733546257019
08-12-1982,3.21875,0.0,244800,3.28125,3.21875,1.1056327819824219
09-12-1982,3.15625,0.0,126400,3.1875,3.15625,1.0841635465621948
10-12-1982,3.078125,0.0,145600,3.1796875,3.09375,1.062695026397705
13-12-1982,2.984375,0.0,572800,3.0625,3.0,1.0304925441741943
14-12-1982,3.0,0.0,286400,3.078125,3.0,1.0304925441741943
15-12-1982,2.96875,0.0,160000,3.0,2.9765625,1.0224415063858032
16-12-1982,2.8828125,0.0,1177600,2.96875,2.9453125,1.0117067098617554
17-12-1982,3.015625,0.0,291200,3.09375,3.09375,1.062695026397705
20-12-1982,3.046875,0.0,868800,3.09375,3.078125,1.057328224182129
21-12-1982,3.078125,0.0,160000,3.109375,3.109375,1.06806218624115
22-12-1982,3.109375,0.0,694400,3.234375,3.234375,1.1109997034072876
23-12-1982,3.265625,0.0,291200,3.3125,3.28125,1.1271004676818848
27-12-1982,3.109375,0.0,803200,3.28125,3.2109375,1.1029483079910278
28-12-1982,3.203125,0.0,744000,3.328125,3.296875,1.1324687004089355
29-12-1982,3.234375,0.0,473600,3.3046875,3.28125,1.1271004676818848
30-12-1982,3.265625,0.0,315200,3.3125,3.265625,1.121733546257019
31-12-1982,3.2109375,0.0,145600,3.25,3.234375,1.1109997034072876
03-01-1983,3.140625,0.0,499200,3.171875,3.15625,1.0841635465621948
04-01-1983,3.140625,0.0,353600,3.21875,3.21875,1.1056327819824219
05-01-1983,3.234375,0.0,515200,3.296875,3.2578125,1.1190506219863892
06-01-1983,3.265625,0.0,1033600,3.46875,3.421875,1.1754053831100464
07-01-1983,3.421875,0.0,2430400,3.609375,3.5703125,1.226393222808838
10-01-1983,3.46875,0.0,899200,3.5390625,3.5,1.2022414207458496
11-01-1983,3.453125,0.0,830400,3.515625,3.5,1.2022414207458496
12-01-1983,3.359375,0.0,593600,3.5,3.359375,1.1539363861083984
13-01-1983,3.265625,0.0,724800,3.390625,3.3828125,1.1619863510131836
14-01-1983,3.28125,0.0,454400,3.40625,3.40625,1.1700373888015747
17-01-1983,3.3828125,0.0,652800,3.4140625,3.390625,1.164670705795288
18-01-1983,3.375,0.0,288000,3.484375,3.484375,1.1968731880187988
19-01-1983,3.375,0.0,1323200,3.4921875,3.453125,1.1861395835876465
20-01-1983,3.328125,0.0,425600,3.4296875,3.359375,1.1539363861083984
21-01-1983,3.2578125,0.0,241600,3.359375,3.28125,1.1271004676818848
24-01-1983,3.15625,0.0,656000,3.2421875,3.21875,1.1056327819824219
25-01-1983,3.171875,0.0,332800,3.296875,3.21875,1.1056327819824219
26-01-1983,3.21875,0.0,328000,3.265625,3.234375,1.1109997034072876
27-01-1983,3.265625,0.0,484800,3.40625,3.359375,1.1539363861083984
28-01-1983,3.375,0.0,462400,3.4296875,3.40625,1.1700373888015747
31-01-1983,3.40625,0.0,1908800,3.4453125,3.4296875,1.178088665008545
01-02-1983,3.375,0.0,1342400,3.453125,3.375,1.1593035459518433
02-02-1983,3.34375,0.0,249600,3.3984375,3.375,1.1593035459518433
03-02-1983,3.3515625,0.0,200000,3.40625,3.390625,1.164670705795288
04-02-1983,3.34375,0.0,1100800,3.421875,3.40625,1.1700373888015747
07-02-1983,3.390625,0.0,1614400,3.4609375,3.421875,1.1754053831100464
08-02-1983,3.359375,0.0,667200,3.421875,3.375,1.1593035459518433
09-02-1983,3.3125,0.0,299200,3.375,3.3671875,1.156619906425476
10-02-1983,3.375,0.0,784000,3.40625,3.40625,1.1700373888015747
11-02-1983,3.390625,0.0,768000,3.4140625,3.40625,1.1700373888015747
14-02-1983,3.390625,0.0,532800,3.40625,3.390625,1.164670705795288
15-02-1983,3.328125,0.0,1260800,3.390625,3.34375,1.14857017993927
16-02-1983,3.34375,0.0,881600,3.3984375,3.375,1.1593035459518433
17-02-1983,3.34375,0.0,2440000,3.421875,3.390625,1.164670705795288
18-02-1983,3.375,0.0,846400,3.421875,3.375,1.1593035459518433
22-02-1983,3.375,0.0,1120000,3.40625,3.3984375,1.1673541069030762
23-02-1983,3.34375,0.0,1406400,3.3984375,3.3984375,1.1673541069030762
24-02-1983,3.4140625,0.0,2683200,3.5625,3.5625,1.2237093448638916
25-02-1983,3.53125,0.0,2368000,3.6015625,3.5390625,1.2156593799591064
28-02-1983,3.578125,0.0,1920000,3.625,3.6171875,1.2424945831298828
01-03-1983,3.625,0.0,1411200,3.703125,3.6875,1.2666469812393188
02-03-1983,3.6953125,0.0,1604800,3.75,3.7421875,1.2854303121566772
03-03-1983,3.71875,0.0,1451200,3.765625,3.71875,1.2773816585540771
04-03-1983,3.671875,0.0,840000,3.734375,3.703125,1.2720134258270264
07-03-1983,3.703125,0.0,425600,3.734375,3.71875,1.2773816585540771
08-03-1983,3.65625,0.0,1718400,3.734375,3.65625,1.2559127807617188
09-03-1983,3.640625,0.0,366400,3.6875,3.671875,1.2612797021865845
10-03-1983,3.6875,0.0,595200,3.7265625,3.6875,1.2666469812393188
11-03-1983,3.671875,0.0,548800,3.6953125,3.6953125,1.2693301439285278
14-03-1983,3.671875,0.0,542400,3.734375,3.7265625,1.2800647020339966
15-03-1983,3.6953125,0.0,740800,3.7265625,3.7265625,1.2800647020339966
16-03-1983,3.734375,0.0,1308800,3.7578125,3.75,1.288115382194519
17-03-1983,3.75,0.0,859200,3.828125,3.8125,1.3095837831497192
18-03-1983,3.8125,0.0,1619200,4.0,3.984375,1.368622064590454
21-03-1983,3.875,0.0,937600,3.9765625,3.90625,1.341786503791809
22-03-1983,3.90625,0.0,1076800,3.96875,3.9375,1.3525203466415405
23-03-1983,3.921875,0.0,940800,3.9609375,3.921875,1.3471533060073853
24-03-1983,3.875,0.0,536000,3.9296875,3.890625,1.336419701576233
25-03-1983,3.859375,0.0,564800,3.8984375,3.875,1.331052303314209
28-03-1983,3.859375,0.0,416000,3.8984375,3.890625,1.336419701576233
29-03-1983,3.859375,0.0,576000,3.890625,3.859375,1.3256847858428955
30-03-1983,3.7890625,0.0,403200,3.8671875,3.8203125,1.3122674226760864
31-03-1983,3.8359375,0.0,547200,3.875,3.84375,1.3203178644180298
04-04-1983,3.84375,0.0,168000,3.875,3.859375,1.3256847858428955
05-04-1983,3.84375,0.0,947200,3.875,3.859375,1.3256847858428955
06-04-1983,3.8125,3.84375,960000,3.859375,3.84375,1.3203178644180298
07-04-1983,3.828125,3.859375,464000,3.859375,3.84375,1.3203178644180298
08-04-1983,3.75,3.84375,219200,3.84375,3.765625,1.2934825420379639
11-04-1983,3.75,3.765625,387200,3.796875,3.765625,1.2934825420379639
12-04-1983,3.78125,3.796875,313600,3.828125,3.828125,1.3149516582489014
13-04-1983,3.84375,3.84375,401600,3.90625,3.90625,1.341786503791809
14-04-1983,3.9140625,3.9375,316800,3.953125,3.9375,1.3525203466415405
15-04-1983,3.9140625,3.953125,286400,3.9609375,3.9140625,1.3444701433181763
18-04-1983,3.888671875,3.9140625,337600,3.9296875,3.9296875,1.3498380184173584
19-04-1983,3.8984375,3.9296875,494400,3.9765625,3.9765625,1.3659389019012451
20-04-1983,3.96875,3.9765625,198400,3.9921875,3.984375,1.368622064590454
21-04-1983,3.953125,3.984375,465600,4.015625,3.953125,1.3578885793685913
22-04-1983,3.9375,3.9609375,182400,4.0,3.953125,1.3578885793685913
25-04-1983,3.90625,3.953125,468800,4.0,3.96875,1.363254427909851
26-04-1983,3.96875,3.9921875,272000,4.015625,4.0,1.3739895820617676
27-04-1983,4.0,4.046875,387200,4.09375,4.0234375,1.3820405006408691
28-04-1983,4.015625,4.03125,571200,4.046875,4.0390625,1.3874073028564453
29-04-1983,4.0390625,4.0625,619200,4.0859375,4.0859375,1.4035083055496216
02-05-1983,4.046875,4.0859375,670400,4.1171875,4.0546875,1.392774224281311
03-05-1983,4.0,4.0234375,428800,4.0390625,4.0390625,1.3874073028564453
04-05-1983,3.9765625,4.0078125,451200,4.03125,3.9921875,1.3839422464370728
05-05-1983,3.921875,3.96875,740800,4.0078125,3.9375,1.3649837970733643
06-05-1983,3.953125,3.953125,803200,4.078125,4.046875,1.4029008150100708
09-05-1983,4.0,4.015625,553600,4.0625,4.0546875,1.405608892440796
10-05-1983,4.03125,4.0703125,492800,4.0703125,4.03125,1.3974837064743042
11-05-1983,4.0,4.0390625,252800,4.046875,4.0234375,1.3947761058807373
12-05-1983,3.96875,4.0234375,396800,4.03125,3.9765625,1.378526210784912
13-05-1983,3.9609375,3.9921875,225600,3.9921875,3.984375,1.3812339305877686
16-05-1983,3.9375,3.96875,356800,4.0,4.0,1.3866512775421143
17-05-1983,3.9765625,4.0,288000,4.015625,4.015625,1.3920671939849854
18-05-1983,4.0078125,4.0078125,825600,4.140625,4.03125,1.3974837064743042
19-05-1983,3.921875,3.984375,1417600,3.984375,3.953125,1.37040114402771
20-05-1983,3.9375,3.953125,321600,4.0078125,4.0078125,1.389359712600708
23-05-1983,4.0078125,4.015625,488000,4.0625,4.0390625,1.400192379951477
24-05-1983,4.046875,4.046875,355200,4.1171875,4.1171875,1.4272748231887817
25-05-1983,4.078125,4.09375,580800,4.1171875,4.109375,1.4245665073394775
26-05-1983,4.078125,4.09375,1388800,4.25,4.203125,1.4570661783218384
27-05-1983,4.15625,4.203125,209600,4.203125,4.1640625,1.4435254335403442
31-05-1983,4.078125,4.1640625,601600,4.171875,4.09375,1.419150471687317
01-06-1983,4.0625,4.0625,488000,4.1015625,4.1015625,1.421859860420227
02-06-1983,3.984375,4.109375,366400,4.1171875,4.03125,1.3974837064743042
03-06-1983,3.96875,4.015625,1065600,4.046875,4.03125,1.3974837064743042
06-06-1983,4.0546875,4.0625,5444800,4.078125,4.0703125,1.4110255241394043
07-06-1983,4.03125,4.0859375,457600,4.0859375,4.046875,1.4029008150100708
08-06-1983,4.0078125,4.046875,444800,4.0546875,4.0078125,1.389359712600708
09-06-1983,3.984375,4.015625,427200,4.0234375,4.0078125,1.389359712600708
10-06-1983,4.015625,4.0234375,1878400,4.0625,4.0625,1.408316969871521
13-06-1983,4.0625,4.0625,1062400,4.09375,4.078125,1.4137333631515503
14-06-1983,4.078125,4.078125,272000,4.109375,4.109375,1.4245665073394775
15-06-1983,4.1015625,4.109375,592000,4.125,4.1171875,1.4272748231887817
16-06-1983,4.125,4.125,628800,4.15625,4.15625,1.4408166408538818
17-06-1983,4.125,4.15625,1081600,4.1640625,4.125,1.4299839735031128
20-06-1983,4.1015625,4.109375,222400,4.140625,4.1171875,1.4272748231887817
21-06-1983,4.046875,4.1015625,340800,4.1171875,4.09375,1.419150471687317
22-06-1983,4.0625,4.0859375,435200,4.109375,4.09375,1.419150471687317
23-06-1983,4.0703125,4.09375,145600,4.109375,4.0703125,1.4110255241394043
24-06-1983,4.0625,4.0703125,212800,4.09375,4.09375,1.419150471687317
27-06-1983,4.0625,4.0703125,609600,4.0859375,4.078125,1.4137333631515503
28-06-1983,4.046875,4.09375,428800,4.109375,4.046875,1.4029008150100708
29-06-1983,3.9375,4.0390625,1552000,4.0390625,3.9375,1.3649837970733643
30-06-1983,3.921875,3.9375,534400,3.984375,3.96875,1.3758169412612915
01-07-1983,3.953125,3.953125,947200,4.0234375,4.0234375,1.3947761058807373
05-07-1983,3.96875,4.0078125,155200,4.0078125,3.9921875,1.3839422464370728
06-07-1983,3.9375,3.96875,217600,3.9921875,3.984375,1.3812339305877686
07-07-1983,3.921875,3.984375,452800,3.984375,3.96875,1.3758169412612915
08-07-1983,3.9609375,3.96875,152000,3.984375,3.984375,1.3812339305877686
11-07-1983,3.9765625,3.984375,395200,3.9921875,3.9765625,1.378526210784912
12-07-1983,3.90625,3.9765625,569600,3.9765625,3.90625,1.3541512489318848
13-07-1983,3.859375,3.890625,291200,3.921875,3.8671875,1.3406099081039429
14-07-1983,3.875,3.90625,419200,3.9375,3.8984375,1.3514420986175537
15-07-1983,3.8125,3.90625,329600,3.9140625,3.828125,1.32706880569458
18-07-1983,3.78125,3.8046875,827200,3.828125,3.8125,1.321651577949524
19-07-1983,3.796875,3.8046875,497600,3.8203125,3.8125,1.321651577949524
20-07-1983,3.8125,3.8125,633600,3.875,3.875,1.3433177471160889
21-07-1983,4.0,4.03125,681600,4.03125,4.0,1.3866512775421143
22-07-1983,4.015625,4.0703125,747200,4.125,4.125,1.4299839735031128
25-07-1983,4.1484375,4.1484375,441600,4.2109375,4.2109375,1.4597748517990112
26-07-1983,4.21875,4.21875,814400,4.3125,4.3125,1.4949837923049927
27-07-1983,4.1875,4.3125,531200,4.3125,4.1953125,1.454358458518982
28-07-1983,4.0625,4.203125,384000,4.2109375,4.0859375,1.4164420366287231
29-07-1983,3.953125,4.03125,771200,4.0546875,3.9921875,1.3839422464370728
01-08-1983,3.8671875,3.90625,1000000,3.921875,3.9140625,1.3568593263626099
02-08-1983,3.90625,3.9375,254400,3.953125,3.9140625,1.3568593263626099
03-08-1983,3.84375,3.890625,656000,3.90625,3.875,1.3433177471160889
04-08-1983,3.65625,3.796875,812800,3.84375,3.7109375,1.2998616695404053
05-08-1983,3.6875,3.6875,881600,3.7578125,3.734375,1.3080713748931885
08-08-1983,3.703125,3.703125,472000,3.828125,3.734375,1.3080713748931885
09-08-1983,3.65625,3.765625,2072000,3.765625,3.671875,1.286178708076477
10-08-1983,3.5,3.640625,1752000,3.640625,3.53125,1.2369205951690674
11-08-1983,3.5,3.53125,923200,3.609375,3.5625,1.2478678226470947
12-08-1983,3.578125,3.59375,320000,3.65625,3.6328125,1.2724961042404175
15-08-1983,3.6640625,3.6640625,304000,3.765625,3.75,1.3135443925857544
16-08-1983,3.6328125,3.75,900800,3.75,3.671875,1.286178708076477
17-08-1983,3.65625,3.65625,868800,3.75,3.734375,1.3080713748931885
18-08-1983,3.703125,3.765625,305600,3.796875,3.7109375,1.2998616695404053
19-08-1983,3.703125,3.71875,187200,3.7421875,3.734375,1.3080713748931885
22-08-1983,3.734375,3.7421875,1060800,3.8125,3.7421875,1.310807228088379
23-08-1983,3.75,3.7734375,288000,3.8125,3.7890625,1.3272268772125244
24-08-1983,3.7265625,3.765625,225600,3.765625,3.734375,1.3080713748931885
25-08-1983,3.7109375,3.71875,550400,3.8125,3.8046875,1.3327003717422485
26-08-1983,3.8125,3.8125,433600,3.90625,3.90625,1.3682754039764404
29-08-1983,3.8828125,3.921875,259200,3.9609375,3.9453125,1.381957769393921
30-08-1983,3.953125,3.953125,1729600,4.0703125,4.0,1.4011138677597046
31-08-1983,3.96875,3.96875,924800,3.984375,3.984375,1.3956403732299805
01-09-1983,3.96875,3.96875,502400,4.0625,4.046875,1.4175326824188232
02-09-1983,4.046875,4.0625,310400,4.125,4.125,1.4448996782302856
06-09-1983,4.15625,4.171875,457600,4.203125,4.1875,1.4667904376983643
07-09-1983,4.21875,4.21875,1228800,4.3359375,4.3359375,1.5187851190567017
08-09-1983,4.3203125,4.34375,628800,4.375,4.359375,1.5269955396652222
09-09-1983,4.28125,4.359375,2353600,4.375,4.28125,1.4996299743652344
12-09-1983,4.25,4.296875,604800,4.375,4.2578125,1.4914212226867676
13-09-1983,4.125,4.265625,381600,4.265625,4.1875,1.4667904376983643
14-09-1983,4.15625,4.21875,126400,4.21875,4.203125,1.4722636938095093
15-09-1983,4.1875,4.203125,356800,4.21875,4.21875,1.4777363538742065
16-09-1983,4.0625,4.1875,581600,4.1875,4.09375,1.433952808380127
19-09-1983,4.09375,4.125,172800,4.21875,4.171875,1.461317777633667
20-09-1983,4.140625,4.140625,395200,4.25,4.25,1.4886835813522339
21-09-1983,4.203125,4.25,999200,4.46875,4.46875,1.5653060674667358
22-09-1983,4.375,4.46875,1304000,4.46875,4.4375,1.5543608665466309
23-09-1983,4.40625,4.421875,452800,4.546875,4.546875,1.5926721096038818
26-09-1983,4.46875,4.546875,338400,4.578125,4.484375,1.5707789659500122
27-09-1983,4.4375,4.5,402400,4.53125,4.5,1.5762534141540527
28-09-1983,4.453125,4.46875,150400,4.53125,4.453125,1.5598336458206177
29-09-1983,4.34375,4.4375,211200,4.5,4.34375,1.5215222835540771
30-09-1983,4.09375,4.28125,1076800,4.28125,4.109375,1.4394254684448242
03-10-1983,4.015625,4.109375,313600,4.109375,4.109375,1.4394254684448242
04-10-1983,4.078125,4.078125,366400,4.265625,4.234375,1.483210802078247
05-10-1983,4.15625,4.1875,376000,4.25,4.25,1.4886835813522339
06-10-1983,4.21875,4.25,899200,4.390625,4.34375,1.5215222835540771
07-10-1983,4.5625,4.5625,759200,4.625,4.609375,1.614565134048462
10-10-1983,4.515625,4.5625,546400,4.5625,4.515625,1.5817254781723022
11-10-1983,4.5,4.5625,453600,4.59375,4.5,1.5762534141540527
12-10-1983,4.46875,4.5,406400,4.578125,4.5625,1.598145842552185
13-10-1983,4.5625,4.625,558400,4.65625,4.578125,1.6036193370819092
14-10-1983,4.515625,4.5625,148000,4.609375,4.546875,1.5926721096038818
17-10-1983,4.375,4.53125,324000,4.53125,4.40625,1.5434153079986572
18-10-1983,4.375,4.515625,324000,4.53125,4.40625,1.5434153079986572
19-10-1983,4.375,4.421875,2216000,4.5625,4.40625,1.5434153079986572
20-10-1983,4.40625,4.4375,604800,4.53125,4.46875,1.5653060674667358
21-10-1983,4.453125,4.453125,1336000,4.5625,4.53125,1.5871987342834473
24-10-1983,4.5,4.53125,313600,4.578125,4.5625,1.598145842552185
25-10-1983,4.53125,4.5625,668800,4.59375,4.546875,1.5926721096038818
26-10-1983,4.453125,4.546875,351200,4.578125,4.515625,1.5817254781723022
27-10-1983,4.484375,4.5,41600,4.5625,4.484375,1.5707789659500122
28-10-1983,4.484375,4.484375,607200,4.53125,4.5,1.5762534141540527
31-10-1983,4.515625,4.53125,478400,4.59375,4.5625,1.598145842552185
01-11-1983,4.4375,4.578125,793600,4.578125,4.46875,1.5653060674667358
02-11-1983,4.453125,4.46875,877600,4.5625,4.546875,1.5926721096038818
03-11-1983,4.453125,4.53125,236000,4.53125,4.46875,1.5791994333267212
04-11-1983,4.34375,4.375,336800,4.453125,4.34375,1.5350263118743896
07-11-1983,4.25,4.375,408000,4.40625,4.28125,1.5129393339157104
08-11-1983,4.203125,4.28125,435200,4.28125,4.203125,1.4853308200836182
09-11-1983,4.203125,4.234375,176800,4.28125,4.25,1.5018956661224365
10-11-1983,4.1875,4.25,495200,4.28125,4.203125,1.4853308200836182
11-11-1983,4.21875,4.234375,1606400,4.3125,4.3125,1.5239843130111694
14-11-1983,4.328125,4.328125,616000,4.4375,4.375,1.5460692644119263
15-11-1983,4.34375,4.359375,920800,4.390625,4.34375,1.5350263118743896
16-11-1983,4.296875,4.3125,454400,4.40625,4.40625,1.557112693786621
17-11-1983,4.359375,4.359375,792000,4.421875,4.390625,1.5515919923782349
18-11-1983,4.328125,4.359375,531200,4.390625,4.390625,1.5515919923782349
21-11-1983,4.375,4.421875,281600,4.4375,4.40625,1.557112693786621
22-11-1983,4.40625,4.4375,636800,4.5625,4.53125,1.6012859344482422
23-11-1983,4.546875,4.546875,619200,4.65625,4.578125,1.6178505420684814
25-11-1983,4.59375,4.625,273600,4.625,4.59375,1.623373031616211
28-11-1983,4.53125,4.59375,770400,4.625,4.5625,1.612329363822937
29-11-1983,4.4375,4.5625,1019200,4.5625,4.4375,1.5681567192077637
30-11-1983,4.46875,4.5,844000,4.546875,4.515625,1.595764398574829
01-12-1983,4.484375,4.484375,309600,4.546875,4.5,1.5902427434921265
02-12-1983,4.46875,4.46875,124800,4.5625,4.546875,1.6068075895309448
05-12-1983,4.4375,4.515625,754400,4.515625,4.5,1.5902427434921265
06-12-1983,4.46875,4.515625,184000,4.515625,4.46875,1.5791994333267212
07-12-1983,4.4375,4.4375,735200,4.5,4.4375,1.5681567192077637
08-12-1983,4.40625,4.46875,628800,4.46875,4.4375,1.5681567192077637
09-12-1983,4.40625,4.40625,500000,4.453125,4.4375,1.5681567192077637
12-12-1983,4.390625,4.390625,120000,4.4375,4.390625,1.5515919923782349
13-12-1983,4.375,4.40625,100000,4.453125,4.40625,1.557112693786621
14-12-1983,4.34375,4.375,1194400,4.40625,4.34375,1.5350263118743896
15-12-1983,4.25,4.25,192800,4.3125,4.265625,1.5074175596237183
16-12-1983,4.1875,4.265625,640800,4.28125,4.234375,1.496375322341919
19-12-1983,4.203125,4.203125,1264000,4.375,4.296875,1.5184601545333862
20-12-1983,4.28125,4.28125,405600,4.375,4.296875,1.5184601545333862
21-12-1983,4.21875,4.296875,792800,4.3125,4.3125,1.5239843130111694
22-12-1983,4.25,4.3125,403200,4.34375,4.25,1.5018956661224365
23-12-1983,4.203125,4.203125,127200,4.25,4.21875,1.4908522367477417
27-12-1983,4.234375,4.234375,384800,4.328125,4.328125,1.5295048952102661
28-12-1983,4.25,4.3125,1399200,4.328125,4.296875,1.5184601545333862
29-12-1983,4.296875,4.3125,188800,4.4375,4.4375,1.5681567192077637
30-12-1983,4.34375,4.46875,563200,4.46875,4.359375,1.5405479669570923
03-01-1984,4.328125,4.328125,460000,4.453125,4.34375,1.5350263118743896
04-01-1984,4.3125,4.328125,1320800,4.375,4.34375,1.5350263118743896
05-01-1984,4.34375,4.375,1296000,4.609375,4.5625,1.612329363822937
06-01-1984,4.53125,4.59375,693600,4.625,4.59375,1.623373031616211
09-01-1984,4.578125,4.59375,900800,4.75,4.671875,1.65098237991333
10-01-1984,4.578125,4.703125,532000,4.71875,4.578125,1.6178505420684814
11-01-1984,4.5,4.5625,502400,4.609375,4.578125,1.6178505420684814
12-01-1984,4.46875,4.53125,204000,4.5625,4.5,1.5902427434921265
13-01-1984,4.3125,4.4375,294400,4.4375,4.375,1.5460692644119263
16-01-1984,4.3125,4.34375,391200,4.421875,4.421875,1.562634825706482
17-01-1984,4.375,4.421875,351200,4.4375,4.421875,1.562634825706482
18-01-1984,4.34375,4.421875,552800,4.4375,4.375,1.5460692644119263
19-01-1984,4.40625,4.40625,529600,4.46875,4.4375,1.5681567192077637
20-01-1984,4.453125,4.484375,268000,4.484375,4.453125,1.573678731918335
23-01-1984,4.296875,4.4375,2306400,4.4375,4.296875,1.5184601545333862
24-01-1984,4.21875,4.296875,504800,4.328125,4.21875,1.4908522367477417
25-01-1984,4.1875,4.25,560800,4.296875,4.21875,1.4908522367477417
26-01-1984,4.0625,4.15625,846400,4.1875,4.15625,1.4687657356262207
27-01-1984,4.09375,4.125,588800,4.1875,4.125,1.4577234983444214
30-01-1984,3.96875,4.078125,643200,4.078125,4.0,1.4135489463806152
31-01-1984,3.96875,4.0,533600,4.09375,4.0,1.4135489463806152
01-02-1984,3.8125,4.0,642400,4.0625,3.96875,1.4025059938430786
02-02-1984,3.859375,3.921875,502400,3.953125,3.875,1.3693761825561523
03-02-1984,3.90625,3.90625,748800,4.0,3.9375,1.391461968421936
06-02-1984,3.859375,3.890625,1136800,3.96875,3.9375,1.391461968421936
07-02-1984,3.875,3.921875,891200,3.953125,3.953125,1.3969846963882446
08-02-1984,3.921875,4.03125,405600,4.0625,3.9375,1.391461968421936
09-02-1984,3.8125,3.921875,765600,3.96875,3.84375,1.358332872390747
10-02-1984,3.71875,3.84375,756000,3.875,3.78125,1.3362457752227783
13-02-1984,3.71875,3.796875,352000,3.796875,3.765625,1.3307247161865234
14-02-1984,3.625,3.78125,989600,3.78125,3.75,1.339430809020996
15-02-1984,3.59375,3.75,422400,3.75,3.625,1.2947828769683838
16-02-1984,3.546875,3.671875,396800,3.6875,3.625,1.2947828769683838
17-02-1984,3.421875,3.625,993600,3.640625,3.46875,1.238973617553711
21-02-1984,3.4375,3.484375,616000,3.5,3.484375,1.2445544004440308
22-02-1984,3.4375,3.484375,3064800,3.609375,3.578125,1.2780400514602661
23-02-1984,3.4375,3.578125,684000,3.578125,3.546875,1.2668776512145996
24-02-1984,3.53125,3.5625,696000,3.625,3.59375,1.2836207151412964
27-02-1984,3.640625,3.671875,732800,3.8125,3.78125,1.3505924940109253
28-02-1984,3.625,3.78125,644800,3.78125,3.65625,1.3059443235397339
29-02-1984,3.65625,3.65625,277600,3.796875,3.734375,1.3338496685028076
01-03-1984,3.6875,3.75,355200,3.8125,3.78125,1.3505924940109253
02-03-1984,3.6875,3.75,1381600,3.8125,3.78125,1.3505924940109253
05-03-1984,3.71875,3.8125,566400,3.90625,3.71875,1.3282690048217773
06-03-1984,3.71875,3.75,408800,3.8125,3.765625,1.3450112342834473
07-03-1984,3.6875,3.71875,195200,3.8125,3.75,1.339430809020996
08-03-1984,3.65625,3.734375,291200,3.765625,3.71875,1.3282690048217773
09-03-1984,3.65625,3.75,484000,3.75,3.65625,1.3059443235397339
12-03-1984,3.671875,3.671875,291200,3.796875,3.75,1.339430809020996
13-03-1984,3.78125,3.78125,470400,3.875,3.8125,1.361754298210144
14-03-1984,3.78125,3.8125,1076000,3.859375,3.8125,1.361754298210144
15-03-1984,3.78125,3.8125,289600,3.859375,3.8125,1.361754298210144
16-03-1984,3.890625,3.90625,772000,3.9375,3.921875,1.4008212089538574
19-03-1984,3.8125,3.890625,313600,3.890625,3.859375,1.3784971237182617
20-03-1984,3.796875,3.828125,220800,3.859375,3.859375,1.3784971237182617
21-03-1984,3.828125,3.828125,252800,3.9375,3.875,1.3840781450271606
22-03-1984,3.78125,3.90625,209600,3.90625,3.828125,1.3673356771469116
23-03-1984,3.75,3.8125,304800,3.84375,3.78125,1.3505924940109253
26-03-1984,3.75,3.78125,122400,3.8125,3.796875,1.3561732769012451
27-03-1984,3.75,3.765625,103200,3.8125,3.796875,1.3561732769012451
28-03-1984,3.78125,3.796875,248800,3.828125,3.8125,1.361754298210144
29-03-1984,3.765625,3.828125,260800,3.828125,3.796875,1.3561732769012451
30-03-1984,3.71875,3.796875,354400,3.8125,3.796875,1.3561732769012451
02-04-1984,3.640625,3.765625,433600,3.796875,3.640625,1.3003637790679932
03-04-1984,3.625,3.640625,559200,3.71875,3.6875,1.3171067237854004
04-04-1984,3.65625,3.65625,249600,3.71875,3.703125,1.322686791419983
05-04-1984,3.65625,3.703125,140800,3.71875,3.703125,1.322686791419983
06-04-1984,3.640625,3.671875,188000,3.6875,3.65625,1.3059443235397339
09-04-1984,3.5,3.6875,860800,3.71875,3.515625,1.255716323852539
10-04-1984,3.453125,3.5,480800,3.53125,3.453125,1.233392357826233
11-04-1984,3.390625,3.4375,2084800,3.453125,3.4375,1.2278112173080444
12-04-1984,3.484375,3.484375,885600,3.578125,3.546875,1.2668776512145996
13-04-1984,3.4375,3.578125,2246400,3.59375,3.484375,1.2445544004440308
16-04-1984,3.421875,3.5,888800,3.5,3.46875,1.238973617553711
17-04-1984,3.484375,3.5,1244800,3.546875,3.5,1.2501354217529297
18-04-1984,3.5,3.515625,1323200,3.53125,3.515625,1.255716323852539
19-04-1984,3.5,3.53125,290400,3.578125,3.5625,1.2724590301513672
23-04-1984,3.546875,3.59375,242400,3.609375,3.5625,1.2724590301513672
24-04-1984,3.484375,3.53125,612800,3.609375,3.5,1.2501354217529297
25-04-1984,3.515625,3.53125,840800,3.59375,3.5625,1.2724590301513672
26-04-1984,3.59375,3.59375,1172800,3.75,3.703125,1.322686791419983
27-04-1984,3.703125,3.734375,596800,3.8125,3.75,1.339430809020996
30-04-1984,3.703125,3.75,315200,3.796875,3.78125,1.3505924940109253
01-05-1984,3.78125,3.796875,473600,3.84375,3.84375,1.3729166984558105
02-05-1984,3.78125,3.859375,392800,3.875,3.859375,1.3784971237182617
03-05-1984,3.78125,3.890625,353600,3.890625,3.828125,1.3673356771469116
04-05-1984,3.59375,3.78125,682400,3.796875,3.65625,1.3214789628982544
07-05-1984,3.65625,3.71875,988000,3.75,3.75,1.3553630113601685
08-05-1984,3.71875,3.75,811200,3.828125,3.8125,1.3779524564743042
09-05-1984,3.765625,3.8125,752000,3.875,3.78125,1.3666578531265259
10-05-1984,3.734375,3.78125,208800,3.78125,3.78125,1.3666578531265259
11-05-1984,3.5625,3.78125,575200,3.78125,3.703125,1.3384203910827637
14-05-1984,3.578125,3.71875,273600,3.71875,3.625,1.3101842403411865
15-05-1984,3.5625,3.625,702400,3.640625,3.578125,1.2932415008544922
16-05-1984,3.453125,3.5625,1334400,3.5625,3.5625,1.2875947952270508
17-05-1984,3.46875,3.53125,1342400,3.5625,3.46875,1.2537108659744263
18-05-1984,3.40625,3.453125,908800,3.5,3.421875,1.2367690801620483
21-05-1984,3.390625,3.40625,536800,3.46875,3.421875,1.2367690801620483
22-05-1984,3.28125,3.421875,1011200,3.421875,3.34375,1.2085314989089966
23-05-1984,3.34375,3.359375,583200,3.421875,3.390625,1.225473403930664
24-05-1984,3.296875,3.375,1495200,3.40625,3.34375,1.2085314989089966
25-05-1984,3.28125,3.375,728000,3.40625,3.3125,1.1972368955612183
29-05-1984,3.1875,3.34375,768000,3.359375,3.25,1.1746482849121094
30-05-1984,3.125,3.28125,3813600,3.28125,3.15625,1.1407634019851685
31-05-1984,3.09375,3.109375,1299200,3.171875,3.125,1.1294692754745483
01-06-1984,3.171875,3.1875,1281600,3.234375,3.203125,1.1577056646347046
04-06-1984,3.21875,3.21875,2139200,3.46875,3.375,1.2198268175125122
05-06-1984,3.28125,3.40625,825600,3.40625,3.34375,1.2085314989089966
06-06-1984,3.40625,3.40625,440000,3.46875,3.46875,1.2537108659744263
07-06-1984,3.46875,3.46875,6442400,3.515625,3.515625,1.2706528902053833
08-06-1984,3.484375,3.53125,396800,3.546875,3.53125,1.276300072669983
11-06-1984,3.515625,3.5625,323200,3.5625,3.53125,1.276300072669983
12-06-1984,3.453125,3.484375,284000,3.5,3.5,1.2650054693222046
13-06-1984,3.484375,3.5,260800,3.53125,3.515625,1.2706528902053833
14-06-1984,3.421875,3.5,861600,3.515625,3.453125,1.2480634450912476
15-06-1984,3.375,3.453125,334400,3.484375,3.40625,1.2311209440231323
18-06-1984,3.375,3.375,472000,3.484375,3.46875,1.2537108659744263
19-06-1984,3.4375,3.5,385600,3.5,3.484375,1.2593579292297363
20-06-1984,3.375,3.453125,2826400,3.46875,3.46875,1.2537108659744263
21-06-1984,3.421875,3.46875,983200,3.46875,3.453125,1.2480634450912476
22-06-1984,3.390625,3.453125,839200,3.453125,3.453125,1.2480634450912476
25-06-1984,3.453125,3.484375,1771200,3.515625,3.46875,1.2537108659744263
26-06-1984,3.46875,3.5,2021600,3.546875,3.46875,1.2537108659744263
27-06-1984,3.375,3.4375,542400,3.46875,3.4375,1.2424159049987793
28-06-1984,3.390625,3.4375,572000,3.4375,3.4375,1.2424159049987793
29-06-1984,3.4375,3.4375,1027200,3.484375,3.484375,1.2593579292297363
02-07-1984,3.453125,3.53125,511200,3.53125,3.484375,1.2593579292297363
03-07-1984,3.46875,3.5,676000,3.59375,3.5625,1.2875947952270508
05-07-1984,3.5,3.5625,293600,3.578125,3.546875,1.2819468975067139
06-07-1984,3.484375,3.53125,331200,3.65625,3.546875,1.2819468975067139
09-07-1984,3.578125,3.59375,264000,3.625,3.625,1.3101842403411865
10-07-1984,3.65625,3.65625,552800,3.78125,3.71875,1.3440676927566528
11-07-1984,3.65625,3.71875,184000,3.75,3.6875,1.3327735662460327
12-07-1984,3.5625,3.625,382400,3.6875,3.625,1.3101842403411865
13-07-1984,3.546875,3.65625,687200,3.6875,3.609375,1.3045368194580078
16-07-1984,3.546875,3.609375,436000,3.65625,3.625,1.3101842403411865
17-07-1984,3.609375,3.625,928800,3.6875,3.65625,1.3214789628982544
18-07-1984,3.53125,3.65625,272800,3.65625,3.625,1.3101842403411865
19-07-1984,3.46875,3.625,314400,3.625,3.5,1.2650054693222046
20-07-1984,3.53125,3.53125,136000,3.625,3.59375,1.298890233039856
23-07-1984,3.53125,3.59375,532000,3.59375,3.546875,1.2819468975067139
24-07-1984,3.53125,3.546875,476800,3.59375,3.546875,1.2819468975067139
25-07-1984,3.515625,3.546875,224800,3.578125,3.546875,1.2819468975067139
26-07-1984,3.5,3.578125,936800,3.578125,3.53125,1.276300072669983
27-07-1984,3.46875,3.5,457600,3.625,3.53125,1.276300072669983
30-07-1984,3.46875,3.546875,628000,3.609375,3.5,1.2650054693222046
31-07-1984,3.40625,3.484375,531200,3.53125,3.453125,1.2480634450912476
01-08-1984,3.484375,3.484375,1785600,3.734375,3.625,1.3101842403411865
02-08-1984,3.625,3.625,1441600,3.75,3.75,1.3553630113601685
03-08-1984,3.828125,3.875,1789600,3.9375,3.875,1.4005416631698608
06-08-1984,3.8125,3.859375,2960800,3.9375,3.9375,1.439852237701416
07-08-1984,3.890625,3.90625,716000,4.046875,3.984375,1.4569926261901855
08-08-1984,3.9375,3.984375,592000,4.0,3.9375,1.439852237701416
09-08-1984,3.875,3.9375,1179200,4.125,4.109375,1.5027018785476685
10-08-1984,4.09375,4.09375,1677600,4.234375,4.1875,1.5312707424163818
13-08-1984,4.0625,4.15625,1063200,4.1875,4.078125,1.4912744760513306
14-08-1984,4.09375,4.15625,637600,4.15625,4.09375,1.4969885349273682
15-08-1984,3.96875,4.03125,536000,4.109375,4.078125,1.4912744760513306
16-08-1984,4.046875,4.046875,495200,4.15625,4.09375,1.4969885349273682
17-08-1984,4.09375,4.125,474400,4.15625,4.109375,1.5027018785476685
20-08-1984,4.09375,4.09375,893600,4.1875,4.1875,1.5312707424163818
21-08-1984,4.15625,4.21875,700000,4.28125,4.234375,1.5484126806259155
22-08-1984,4.125,4.234375,1062400,4.234375,4.21875,1.5426980257034302
23-08-1984,4.171875,4.1875,199200,4.21875,4.1875,1.5312707424163818
24-08-1984,4.1875,4.1875,376800,4.3125,4.296875,1.5712661743164062
27-08-1984,4.21875,4.3125,188800,4.3125,4.28125,1.5655529499053955
28-08-1984,4.21875,4.25,974400,4.296875,4.234375,1.5484126806259155
29-08-1984,4.171875,4.25,725600,4.28125,4.1875,1.5312707424163818
30-08-1984,4.140625,4.15625,276000,4.203125,4.15625,1.5198434591293335
31-08-1984,4.09375,4.125,365600,4.1875,4.1875,1.5312707424163818
04-09-1984,4.140625,4.15625,382400,4.171875,4.171875,1.5255568027496338
05-09-1984,4.078125,4.140625,368000,4.171875,4.140625,1.5141304731369019
06-09-1984,4.171875,4.171875,220000,4.203125,4.1875,1.5312707424163818
07-09-1984,4.15625,4.234375,332000,4.25,4.1875,1.5312707424163818
10-09-1984,4.140625,4.15625,212800,4.21875,4.1875,1.5312707424163818
11-09-1984,4.21875,4.21875,533600,4.28125,4.25,1.5541256666183472
12-09-1984,4.1875,4.21875,748800,4.25,4.21875,1.5426980257034302
13-09-1984,4.1875,4.1875,1043200,4.34375,4.34375,1.5884082317352295
14-09-1984,4.296875,4.359375,648800,4.375,4.34375,1.5884082317352295
17-09-1984,4.3125,4.3125,676800,4.40625,4.40625,1.6112622022628784
18-09-1984,4.40625,4.421875,744800,4.484375,4.484375,1.6398310661315918
19-09-1984,4.421875,4.453125,767200,4.515625,4.4375,1.6226894855499268
20-09-1984,4.40625,4.40625,536800,4.484375,4.46875,1.634117841720581
21-09-1984,4.4375,4.4375,721600,4.484375,4.4375,1.6226894855499268
24-09-1984,4.40625,4.421875,444000,4.484375,4.46875,1.634117841720581
25-09-1984,4.375,4.453125,1692000,4.453125,4.421875,1.6169766187667847
26-09-1984,4.359375,4.40625,603200,4.46875,4.359375,1.5941212177276611
27-09-1984,4.28125,4.390625,757600,4.40625,4.375,1.5998347997665405
28-09-1984,4.15625,4.265625,817600,4.265625,4.21875,1.5426980257034302
01-10-1984,4.171875,4.1875,296800,4.25,4.21875,1.5426980257034302
02-10-1984,4.171875,4.203125,294400,4.28125,4.171875,1.5255568027496338
03-10-1984,4.0,4.140625,1790400,4.1875,4.03125,1.4741334915161133
04-10-1984,4.03125,4.03125,644000,4.09375,4.09375,1.4969885349273682
05-10-1984,4.125,4.125,310400,4.21875,4.171875,1.5255568027496338
08-10-1984,4.078125,4.15625,121600,4.171875,4.109375,1.5027018785476685
09-10-1984,4.09375,4.109375,1056000,4.15625,4.140625,1.5141304731369019
10-10-1984,4.03125,4.140625,262400,4.15625,4.15625,1.5198434591293335
11-10-1984,4.140625,4.140625,126400,4.21875,4.21875,1.5426980257034302
12-10-1984,4.1875,4.1875,442400,4.328125,4.296875,1.5712661743164062
15-10-1984,4.28125,4.3125,1718400,4.390625,4.34375,1.5884082317352295
16-10-1984,4.1875,4.328125,244000,4.34375,4.21875,1.5426980257034302
17-10-1984,4.1875,4.21875,328800,4.28125,4.25,1.5541256666183472
18-10-1984,4.21875,4.21875,368000,4.34375,4.34375,1.5884082317352295
19-10-1984,4.34375,4.34375,1361600,4.5625,4.421875,1.6169766187667847
22-10-1984,4.375,4.421875,663200,4.421875,4.375,1.5998347997665405
23-10-1984,4.3125,4.34375,997600,4.375,4.34375,1.5884082317352295
24-10-1984,4.328125,4.328125,234400,4.4375,4.390625,1.6055493354797363
25-10-1984,4.328125,4.375,1270400,4.390625,4.34375,1.5884082317352295
26-10-1984,4.234375,4.3125,825600,4.34375,4.28125,1.5655529499053955
29-10-1984,4.25,4.265625,343200,4.28125,4.25,1.5541256666183472
30-10-1984,4.21875,4.25,420000,4.359375,4.328125,1.5826940536499023
31-10-1984,4.28125,4.28125,791200,4.3125,4.296875,1.5712661743164062
01-11-1984,4.09375,4.125,859200,4.15625,4.125,1.5084161758422852
02-11-1984,4.0625,4.078125,1601600,4.171875,4.140625,1.5308305025100708
05-11-1984,4.109375,4.125,407200,4.203125,4.203125,1.5539371967315674
06-11-1984,4.21875,4.21875,916000,4.296875,4.296875,1.5885974168777466
07-11-1984,4.234375,4.28125,539200,4.296875,4.28125,1.5828202962875366
08-11-1984,4.25,4.28125,999200,4.296875,4.28125,1.5828202962875366
09-11-1984,4.234375,4.296875,480000,4.3125,4.28125,1.5828202962875366
12-11-1984,4.265625,4.265625,361600,4.3125,4.296875,1.5885974168777466
13-11-1984,4.234375,4.265625,615200,4.296875,4.28125,1.5828202962875366
14-11-1984,4.25,4.265625,357600,4.328125,4.3125,1.5943732261657715
15-11-1984,4.28125,4.3125,764000,4.3125,4.3125,1.5943732261657715
16-11-1984,4.28125,4.3125,492000,4.359375,4.328125,1.600150465965271
19-11-1984,4.28125,4.296875,768000,4.375,4.3125,1.5943732261657715
20-11-1984,4.21875,4.265625,313600,4.296875,4.25,1.571266531944275
21-11-1984,4.21875,4.28125,612800,4.28125,4.25,1.571266531944275
23-11-1984,4.21875,4.234375,168000,4.28125,4.25,1.571266531944275
26-11-1984,4.203125,4.25,520800,4.25,4.234375,1.5654897689819336
27-11-1984,4.171875,4.203125,790400,4.234375,4.203125,1.5539371967315674
28-11-1984,4.125,4.1875,481600,4.1875,4.140625,1.5308305025100708
29-11-1984,4.03125,4.109375,733600,4.125,4.078125,1.50772225856781
30-11-1984,4.078125,4.125,350400,4.1875,4.109375,1.5192755460739136
03-12-1984,4.0625,4.078125,244800,4.125,4.078125,1.50772225856781
04-12-1984,4.078125,4.078125,598400,4.1875,4.15625,1.5366060733795166
05-12-1984,4.0625,4.125,287200,4.125,4.09375,1.5134990215301514
06-12-1984,4.078125,4.09375,384800,4.171875,4.140625,1.5308305025100708
07-12-1984,4.09375,4.09375,342400,4.140625,4.125,1.5250535011291504
10-12-1984,4.125,4.125,331200,4.171875,4.140625,1.5308305025100708
11-12-1984,4.125,4.125,416000,4.1875,4.140625,1.5308305025100708
12-12-1984,4.125,4.125,872800,4.15625,4.140625,1.5308305025100708
13-12-1984,4.09375,4.125,420000,4.15625,4.109375,1.5192755460739136
14-12-1984,4.0625,4.078125,412000,4.125,4.09375,1.5134990215301514
17-12-1984,4.0,4.125,1825600,4.125,4.0625,1.501947045326233
18-12-1984,4.09375,4.09375,884000,4.171875,4.171875,1.5423835515975952
19-12-1984,4.15625,4.15625,755200,4.21875,4.15625,1.5366060733795166
20-12-1984,4.125,4.203125,779200,4.21875,4.125,1.5250535011291504
21-12-1984,3.9375,4.09375,1142400,4.15625,4.046875,1.4961694478988647
24-12-1984,4.046875,4.078125,260800,4.125,4.109375,1.5192755460739136
26-12-1984,4.03125,4.109375,103200,4.109375,4.046875,1.4961694478988647
27-12-1984,4.046875,4.078125,1440800,4.09375,4.0625,1.501947045326233
28-12-1984,4.0,4.03125,319200,4.0625,4.046875,1.4961694478988647
31-12-1984,4.046875,4.078125,479200,4.171875,4.109375,1.5192755460739136
02-01-1985,4.109375,4.109375,910400,4.203125,4.15625,1.5366060733795166
03-01-1985,4.125,4.15625,364800,4.171875,4.15625,1.5366060733795166
04-01-1985,4.125,4.140625,332800,4.171875,4.125,1.5250535011291504
07-01-1985,4.140625,4.171875,1047200,4.21875,4.171875,1.5423835515975952
08-01-1985,4.15625,4.171875,320800,4.203125,4.1875,1.5481590032577515
09-01-1985,4.1875,4.21875,337600,4.21875,4.21875,1.5597137212753296
10-01-1985,4.203125,4.21875,1797600,4.296875,4.296875,1.5885974168777466
11-01-1985,4.234375,4.296875,1031200,4.3125,4.28125,1.5828202962875366
14-01-1985,4.25,4.25,2920800,4.328125,4.328125,1.600150465965271
15-01-1985,4.296875,4.328125,5229600,4.4375,4.40625,1.6290335655212402
16-01-1985,4.40625,4.5,13840000,4.5625,4.515625,1.669471025466919
17-01-1985,4.484375,4.515625,1127200,4.515625,4.5,1.6636943817138672
18-01-1985,4.515625,4.53125,2415200,4.578125,4.546875,1.681024193763733
21-01-1985,4.53125,4.53125,1831200,4.71875,4.71875,1.7445682287216187
22-01-1985,4.71875,4.734375,2558400,4.859375,4.734375,1.7503443956375122
23-01-1985,4.71875,4.75,644800,4.796875,4.765625,1.761898159980774
24-01-1985,4.71875,4.734375,940800,4.796875,4.734375,1.7503443956375122
25-01-1985,4.71875,4.71875,966400,4.921875,4.921875,1.819665551185608
28-01-1985,4.859375,4.875,801600,5.0,5.0,1.8485498428344727
29-01-1985,4.875,4.921875,579200,4.96875,4.96875,1.8369957208633423
30-01-1985,4.890625,4.984375,1524000,4.984375,4.96875,1.8369957208633423
31-01-1985,4.78125,4.875,620800,4.90625,4.84375,1.7907814979553223
01-02-1985,4.78125,4.8125,423200,4.84375,4.78125,1.767675757408142
04-02-1985,4.765625,4.765625,1716000,4.828125,4.8125,1.779228687286377
05-02-1985,4.75,4.8125,636800,4.828125,4.78125,1.767675757408142
06-02-1985,4.65625,4.765625,1779200,4.8125,4.703125,1.7387925386428833
07-02-1985,4.6875,4.703125,568000,4.78125,4.78125,1.767675757408142
08-02-1985,4.75,4.78125,959200,4.859375,4.859375,1.7965586185455322
11-02-1985,4.78125,4.8125,571200,4.8125,4.796875,1.7918890714645386
12-02-1985,4.71875,4.765625,586400,4.796875,4.734375,1.7685420513153076
13-02-1985,4.6875,4.71875,432000,4.75,4.734375,1.7685420513153076
14-02-1985,4.65625,4.734375,1396800,4.734375,4.6875,1.7510323524475098
15-02-1985,4.625,4.65625,1879200,4.65625,4.625,1.7276849746704102
19-02-1985,4.609375,4.6875,924800,4.6875,4.609375,1.721848487854004
20-02-1985,4.578125,4.609375,1586400,4.625,4.59375,1.7160102128982544
21-02-1985,4.546875,4.59375,1268000,4.59375,4.578125,1.7101736068725586
22-02-1985,4.546875,4.5625,1045600,4.609375,4.59375,1.7160102128982544
25-02-1985,4.609375,4.609375,356800,4.609375,4.609375,1.721848487854004
26-02-1985,4.59375,4.609375,665600,4.65625,4.640625,1.7335214614868164
27-02-1985,4.625,4.625,451200,4.6875,4.65625,1.7393583059310913
28-02-1985,4.671875,4.6875,763200,4.71875,4.71875,1.7627053260803223
01-03-1985,4.71875,4.75,774400,4.859375,4.828125,1.8035610914230347
04-03-1985,4.734375,4.796875,907200,4.8125,4.765625,1.7802153825759888
05-03-1985,4.71875,4.796875,940000,4.84375,4.75,1.7743788957595825
06-03-1985,4.75,4.75,1347200,4.859375,4.8125,1.7977254390716553
07-03-1985,4.765625,4.78125,678400,4.890625,4.828125,1.8035610914230347
08-03-1985,4.8125,4.8125,493600,4.90625,4.90625,1.8327468633651733
11-03-1985,4.859375,4.875,1016000,4.953125,4.875,1.8210728168487549
12-03-1985,4.6875,4.84375,862400,4.875,4.75,1.7743788957595825
13-03-1985,4.6875,4.71875,280800,4.796875,4.703125,1.7568695545196533
14-03-1985,4.65625,4.6875,569600,4.8125,4.796875,1.7918890714645386
15-03-1985,4.625,4.765625,582400,4.8125,4.625,1.7276849746704102
18-03-1985,4.625,4.625,464000,4.703125,4.671875,1.7451947927474976
19-03-1985,4.640625,4.640625,392800,4.796875,4.75,1.7743788957595825
20-03-1985,4.65625,4.71875,212800,4.71875,4.6875,1.7510323524475098
21-03-1985,4.625,4.65625,334400,4.703125,4.671875,1.7451947927474976
22-03-1985,4.65625,4.6875,413600,4.734375,4.703125,1.7568695545196533
25-03-1985,4.65625,4.703125,211200,4.734375,4.703125,1.7568695545196533
26-03-1985,4.6875,4.71875,472000,4.78125,4.71875,1.7627053260803223
27-03-1985,4.703125,4.734375,250400,4.75,4.734375,1.7685420513153076
28-03-1985,4.640625,4.734375,610400,4.734375,4.671875,1.7451947927474976
29-03-1985,4.625,4.703125,410400,4.703125,4.65625,1.7393583059310913
01-04-1985,4.65625,4.671875,460800,4.703125,4.6875,1.7510323524475098
02-04-1985,4.671875,4.703125,448000,4.71875,4.703125,1.7568695545196533
03-04-1985,4.671875,4.671875,388000,4.75,4.75,1.7743788957595825
04-04-1985,4.703125,4.703125,434400,4.75,4.734375,1.7685420513153076
08-04-1985,4.703125,4.734375,388000,4.734375,4.734375,1.7685420513153076
09-04-1985,4.6875,4.6875,454400,4.71875,4.71875,1.7627053260803223
10-04-1985,4.65625,4.78125,894400,4.78125,4.6875,1.7510323524475098
11-04-1985,4.671875,4.703125,643200,4.71875,4.6875,1.7510323524475098
12-04-1985,4.625,4.65625,1068800,4.6875,4.65625,1.7393583059310913
15-04-1985,4.625,4.625,189600,4.6875,4.6875,1.7510323524475098
16-04-1985,4.578125,4.640625,768800,4.671875,4.625,1.7276849746704102
17-04-1985,4.421875,4.5625,2160800,4.578125,4.484375,1.6751534938812256
18-04-1985,4.390625,4.40625,640800,4.4375,4.421875,1.6518068313598633
19-04-1985,4.390625,4.4375,615200,4.453125,4.4375,1.6576430797576904
22-04-1985,4.34375,4.40625,780000,4.40625,4.40625,1.6459695100784302
23-04-1985,4.34375,4.34375,564000,4.453125,4.453125,1.6634804010391235
24-04-1985,4.375,4.390625,4750400,4.453125,4.390625,1.6401327848434448
25-04-1985,4.34375,4.4375,649600,4.4375,4.4375,1.6576430797576904
26-04-1985,4.390625,4.40625,842400,4.4375,4.421875,1.6518068313598633
29-04-1985,4.375,4.421875,504000,4.421875,4.390625,1.6401327848434448
30-04-1985,4.34375,4.359375,612800,4.375,4.359375,1.6284589767456055
01-05-1985,4.34375,4.359375,2526400,4.40625,4.34375,1.622623085975647
02-05-1985,4.3125,4.328125,977600,4.359375,4.359375,1.6284589767456055
03-05-1985,4.34375,4.359375,497600,4.40625,4.390625,1.6401327848434448
06-05-1985,4.3125,4.359375,297600,4.375,4.3125,1.6295064687728882
07-05-1985,4.3125,4.34375,423200,4.375,4.375,1.6531226634979248
08-05-1985,4.328125,4.375,1213600,4.375,4.34375,1.6413140296936035
09-05-1985,4.359375,4.359375,549600,4.40625,4.40625,1.6649293899536133
10-05-1985,4.40625,4.421875,1000000,4.53125,4.515625,1.706257939338684
13-05-1985,4.46875,4.546875,528000,4.546875,4.5,1.7003542184829712
14-05-1985,4.53125,4.53125,852000,4.625,4.59375,1.735777497291565
15-05-1985,4.59375,4.609375,1112000,4.6875,4.640625,1.7534899711608887
16-05-1985,4.65625,4.671875,509600,4.75,4.75,1.7948187589645386
17-05-1985,4.78125,4.78125,1585600,4.859375,4.84375,1.8302420377731323
20-05-1985,4.875,4.890625,1227200,4.96875,4.9375,1.8656668663024902
21-05-1985,4.90625,4.9375,665600,4.96875,4.953125,1.8715697526931763
22-05-1985,4.921875,4.9375,1565600,4.96875,4.9375,1.8656668663024902
23-05-1985,4.875,4.921875,925600,4.953125,4.953125,1.8715697526931763
24-05-1985,4.890625,4.96875,918400,4.984375,4.921875,1.8597617149353027
28-05-1985,4.828125,4.90625,714400,4.921875,4.859375,1.8361467123031616
29-05-1985,4.828125,4.84375,803200,4.90625,4.875,1.8420507907867432
30-05-1985,4.84375,4.890625,470400,4.90625,4.875,1.8420507907867432
31-05-1985,4.84375,4.875,618400,4.90625,4.890625,1.8479539155960083
03-06-1985,4.796875,4.859375,446400,4.890625,4.8125,1.8184340000152588
04-06-1985,4.78125,4.78125,4740800,4.96875,4.921875,1.8597617149353027
05-06-1985,4.9375,4.953125,2116000,5.109375,5.09375,1.9247066974639893
06-06-1985,5.03125,5.09375,1146400,5.109375,5.109375,1.930611252784729
07-06-1985,5.09375,5.09375,784000,5.1875,5.15625,1.9483226537704468
10-06-1985,5.125,5.15625,580800,5.15625,5.125,1.9365136623382568
11-06-1985,5.09375,5.140625,719200,5.140625,5.109375,1.930611252784729
12-06-1985,5.078125,5.109375,701600,5.125,5.09375,1.9247066974639893
13-06-1985,5.078125,5.125,1678400,5.15625,5.09375,1.9247066974639893
14-06-1985,5.125,5.140625,594400,5.234375,5.21875,1.9719388484954834
17-06-1985,5.1875,5.203125,363200,5.25,5.25,1.9837459325790405
18-06-1985,5.171875,5.21875,696800,5.28125,5.1875,1.9601305723190308
19-06-1985,5.15625,5.203125,1571200,5.28125,5.25,1.9837459325790405
20-06-1985,5.21875,5.21875,241600,5.28125,5.28125,1.995554804801941
21-06-1985,5.25,5.25,808000,5.296875,5.296875,2.001458168029785
24-06-1985,5.21875,5.265625,1336800,5.28125,5.265625,1.9896501302719116
25-06-1985,5.1875,5.25,1568000,5.359375,5.203125,1.9660351276397705
26-06-1985,5.1875,5.21875,676000,5.28125,5.25,1.9837459325790405
27-06-1985,5.21875,5.25,648000,5.296875,5.21875,1.9719388484954834
28-06-1985,5.203125,5.25,646400,5.265625,5.234375,1.9778416156768799
01-07-1985,5.203125,5.234375,485600,5.296875,5.28125,1.995554804801941
02-07-1985,5.25,5.265625,669600,5.3125,5.3125,2.007361888885498
03-07-1985,5.28125,5.3125,1062400,5.4375,5.40625,2.042787551879883
05-07-1985,5.390625,5.40625,444000,5.421875,5.421875,2.0486900806427
08-07-1985,5.390625,5.390625,688000,5.421875,5.421875,2.0486900806427
09-07-1985,5.328125,5.421875,791200,5.421875,5.390625,2.0368812084198
10-07-1985,5.34375,5.375,2248800,5.40625,5.375,2.0309789180755615
11-07-1985,5.328125,5.328125,1067200,5.390625,5.390625,2.0368812084198
12-07-1985,5.390625,5.421875,568800,5.453125,5.453125,2.0604982376098633
15-07-1985,5.4375,5.46875,708800,5.5,5.453125,2.0604982376098633
16-07-1985,5.421875,5.453125,656800,5.53125,5.5,2.078209638595581
17-07-1985,5.59375,5.625,2698400,5.671875,5.671875,2.1431543827056885
18-07-1985,5.625,5.671875,1896000,5.796875,5.78125,2.1844825744628906
19-07-1985,5.734375,5.75,1309600,5.90625,5.875,2.21990704536438
22-07-1985,5.71875,5.84375,429600,5.859375,5.765625,2.1785786151885986
23-07-1985,5.59375,5.796875,941600,5.8125,5.625,2.1254422664642334
24-07-1985,5.5,5.65625,410400,5.65625,5.53125,2.0900180339813232
25-07-1985,5.5,5.53125,535200,5.5625,5.5625,2.1018264293670654
26-07-1985,5.546875,5.546875,1002400,5.734375,5.71875,2.1608667373657227
29-07-1985,5.59375,5.734375,928000,5.734375,5.640625,2.131347417831421
30-07-1985,5.59375,5.625,361600,5.65625,5.640625,2.131347417831421
31-07-1985,5.625,5.640625,216800,5.6875,5.671875,2.1431543827056885
01-08-1985,5.625,5.671875,372800,5.6875,5.65625,2.1372499465942383
02-08-1985,5.640625,5.671875,945600,5.734375,5.6875,2.1490583419799805
05-08-1985,5.640625,5.6875,348800,5.6875,5.65625,2.1372499465942383
06-08-1985,5.46875,5.5,2713600,5.65625,5.5,2.096745014190674
07-08-1985,5.40625,5.5,1204000,5.53125,5.5,2.096745014190674
08-08-1985,5.5,5.53125,1320000,5.6875,5.6875,2.168225049972534
09-08-1985,5.609375,5.65625,725600,5.703125,5.640625,2.1503546237945557
12-08-1985,5.609375,5.609375,644000,5.65625,5.625,2.144397497177124
13-08-1985,5.625,5.640625,587200,5.6875,5.640625,2.1503546237945557
14-08-1985,5.625,5.625,302400,5.6875,5.65625,2.15631365776062
15-08-1985,5.53125,5.671875,822400,5.671875,5.53125,2.108659505844116
16-08-1985,5.375,5.5,678400,5.53125,5.421875,2.066962718963623
19-08-1985,5.421875,5.421875,441600,5.484375,5.453125,2.0788748264312744
20-08-1985,5.453125,5.484375,385600,5.578125,5.546875,2.1146156787872314
21-08-1985,5.453125,5.53125,1249600,5.625,5.5625,2.120572805404663
22-08-1985,5.484375,5.59375,1018400,5.59375,5.5,2.096745014190674
23-08-1985,5.4375,5.46875,458400,5.5625,5.484375,2.0907886028289795
26-08-1985,5.484375,5.484375,340800,5.546875,5.5,2.096745014190674
27-08-1985,5.484375,5.484375,152800,5.5625,5.5625,2.120572805404663
28-08-1985,5.46875,5.5625,448800,5.578125,5.5,2.096745014190674
29-08-1985,5.484375,5.5,355200,5.546875,5.53125,2.108659505844116
30-08-1985,5.484375,5.53125,737600,5.546875,5.53125,2.108659505844116
03-09-1985,5.515625,5.546875,384000,5.6875,5.6875,2.168225049972534
04-09-1985,5.625,5.6875,371200,5.734375,5.671875,2.16226863861084
05-09-1985,5.5625,5.6875,484000,5.6875,5.578125,2.126528024673462
06-09-1985,5.484375,5.5625,406400,5.59375,5.546875,2.1146156787872314
09-09-1985,5.5,5.5625,142400,5.5625,5.5,2.096745014190674
10-09-1985,5.46875,5.46875,272800,5.515625,5.5,2.096745014190674
11-09-1985,5.375,5.5,1280000,5.5,5.390625,2.055048704147339
12-09-1985,5.34375,5.375,597600,5.4375,5.375,2.04909348487854
13-09-1985,5.375,5.375,556800,5.4375,5.421875,2.066962718963623
16-09-1985,5.40625,5.453125,253600,5.53125,5.515625,2.102701187133789
17-09-1985,5.515625,5.515625,879200,5.625,5.609375,2.138441324234009
18-09-1985,5.484375,5.578125,427200,5.640625,5.484375,2.0907886028289795
19-09-1985,5.453125,5.515625,568000,5.515625,5.484375,2.0907886028289795
20-09-1985,5.421875,5.453125,589600,5.53125,5.46875,2.084831476211548
23-09-1985,5.53125,5.53125,484000,5.59375,5.59375,2.1324846744537354
24-09-1985,5.578125,5.59375,599200,5.65625,5.609375,2.138441324234009
25-09-1985,5.546875,5.546875,301600,5.609375,5.609375,2.138441324234009
26-09-1985,5.53125,5.625,360000,5.625,5.59375,2.1324846744537354
30-09-1985,5.578125,5.59375,349600,5.625,5.625,2.144397497177124
01-10-1985,5.59375,5.609375,324000,5.703125,5.703125,2.1741814613342285
02-10-1985,5.59375,5.71875,1103200,5.796875,5.59375,2.1324846744537354
03-10-1985,5.578125,5.578125,260800,5.6875,5.609375,2.138441324234009
04-10-1985,5.546875,5.609375,794400,5.609375,5.578125,2.126528024673462
07-10-1985,5.390625,5.5625,848800,5.5625,5.40625,2.0610055923461914
08-10-1985,5.40625,5.4375,253600,5.484375,5.453125,2.0788748264312744
09-10-1985,5.40625,5.421875,2060000,5.46875,5.4375,2.0729191303253174
10-10-1985,5.421875,5.421875,260000,5.453125,5.4375,2.0729191303253174
11-10-1985,5.40625,5.40625,1391200,5.46875,5.46875,2.084831476211548
14-10-1985,5.453125,5.46875,680000,5.53125,5.53125,2.108659505844116
15-10-1985,5.53125,5.5625,476800,5.59375,5.59375,2.1324846744537354
16-10-1985,5.578125,5.578125,1112000,5.671875,5.671875,2.16226863861084
17-10-1985,5.640625,5.640625,757600,5.703125,5.6875,2.168225049972534
18-10-1985,5.5625,5.671875,757600,5.703125,5.578125,2.126528024673462
21-10-1985,5.5625,5.59375,1012800,5.734375,5.65625,2.15631365776062
22-10-1985,5.65625,5.671875,692000,5.71875,5.703125,2.1741814613342285
23-10-1985,5.59375,5.703125,376800,5.703125,5.671875,2.16226863861084
24-10-1985,5.59375,5.65625,386400,5.671875,5.625,2.144397497177124
25-10-1985,5.515625,5.59375,182400,5.609375,5.609375,2.138441324234009
28-10-1985,5.546875,5.609375,180000,5.625,5.609375,2.138441324234009
29-10-1985,5.609375,5.609375,212800,5.65625,5.65625,2.15631365776062
30-10-1985,5.625,5.625,640000,5.671875,5.671875,2.16226863861084
31-10-1985,5.65625,5.65625,524000,5.6875,5.6875,2.168225049972534
01-11-1985,5.65625,5.65625,965600,5.890625,5.890625,2.2456607818603516
04-11-1985,5.859375,5.90625,1089600,6.0,5.90625,2.2516181468963623
05-11-1985,5.8125,6.015625,884000,6.015625,6.015625,2.3148717880249023
06-11-1985,6.015625,6.015625,1521600,6.15625,6.046875,2.3268959522247314
07-11-1985,6.03125,6.046875,840000,6.15625,6.15625,2.3689846992492676
08-11-1985,6.046875,6.125,337600,6.125,6.09375,2.3449344635009766
11-11-1985,6.03125,6.09375,656800,6.15625,6.15625,2.3689846992492676
12-11-1985,6.125,6.125,1264800,6.25,6.234375,2.399047613143921
13-11-1985,6.140625,6.25,449600,6.25,6.140625,2.362973928451538
14-11-1985,6.078125,6.125,614400,6.234375,6.171875,2.37499737739563
15-11-1985,6.15625,6.15625,1276800,6.3125,6.203125,2.387024164199829
18-11-1985,6.140625,6.21875,1349600,6.296875,6.296875,2.4230992794036865
19-11-1985,6.34375,6.375,854400,6.421875,6.421875,2.4712016582489014
20-11-1985,6.34375,6.375,290400,6.40625,6.375,2.4531617164611816
21-11-1985,6.34375,6.375,668800,6.40625,6.375,2.4531617164611816
22-11-1985,6.203125,6.34375,374400,6.375,6.21875,2.3930375576019287
25-11-1985,6.1875,6.3125,424800,6.3125,6.265625,2.411074161529541
26-11-1985,6.0625,6.234375,1265600,6.25,6.15625,2.3689846992492676
27-11-1985,6.1875,6.1875,1169600,6.3125,6.28125,2.417085886001587
29-11-1985,6.203125,6.25,924800,6.3125,6.234375,2.399047613143921
02-12-1985,6.125,6.203125,472800,6.21875,6.203125,2.387024164199829
03-12-1985,6.171875,6.21875,650400,6.25,6.1875,2.381010055541992
04-12-1985,6.03125,6.0625,2110400,6.1875,6.171875,2.37499737739563
05-12-1985,5.9375,6.15625,1506400,6.1875,5.9375,2.2848093509674072
06-12-1985,5.5625,5.90625,1225600,5.90625,5.859375,2.254744529724121
09-12-1985,5.828125,5.828125,827200,6.078125,5.96875,2.2968337535858154
10-12-1985,5.9375,5.9375,409600,6.03125,5.953125,2.2908201217651367
11-12-1985,5.9375,5.9375,549600,6.0,5.984375,2.302846670150757
12-12-1985,5.90625,5.984375,1932000,6.0625,5.984375,2.302846670150757
13-12-1985,5.984375,5.984375,625600,6.234375,6.203125,2.387024164199829
16-12-1985,6.140625,6.1875,1236000,6.359375,6.34375,2.4411373138427734
17-12-1985,6.1875,6.359375,1179200,6.359375,6.359375,2.447150707244873
18-12-1985,6.28125,6.328125,987200,6.375,6.34375,2.4411373138427734
19-12-1985,6.28125,6.296875,683200,6.359375,6.296875,2.4230992794036865
20-12-1985,6.25,6.296875,795200,6.375,6.375,2.4531617164611816
23-12-1985,6.28125,6.3125,602400,6.375,6.359375,2.447150707244873
24-12-1985,6.09375,6.3125,727200,6.3125,6.140625,2.362973928451538
26-12-1985,6.09375,6.125,173600,6.140625,6.109375,2.350947380065918
27-12-1985,6.078125,6.078125,525600,6.1875,6.1875,2.381010055541992
30-12-1985,6.15625,6.1875,418400,6.265625,6.265625,2.411074161529541
31-12-1985,6.25,6.28125,786400,6.375,6.375,2.4531617164611816
02-01-1986,6.296875,6.375,540800,6.375,6.328125,2.435124635696411
03-01-1986,6.25,6.3125,650400,6.34375,6.296875,2.4230992794036865
06-01-1986,6.140625,6.296875,427200,6.296875,6.1875,2.381010055541992
07-01-1986,6.03125,6.21875,592000,6.234375,6.125,2.3569600582122803
08-01-1986,5.6875,6.15625,1376800,6.171875,5.71875,2.2006313800811768
09-01-1986,5.625,5.625,1164800,5.828125,5.828125,2.2427191734313965
10-01-1986,5.765625,5.8125,749600,5.84375,5.78125,2.224681854248047
13-01-1986,5.765625,5.78125,688800,5.84375,5.78125,2.224681854248047
14-01-1986,5.71875,5.78125,1518400,5.796875,5.765625,2.218667984008789
15-01-1986,5.71875,5.75,1378400,5.90625,5.90625,2.2727832794189453
16-01-1986,5.875,5.921875,352000,6.03125,5.984375,2.302846670150757
17-01-1986,5.9375,5.953125,518400,6.0625,6.015625,2.3148717880249023
20-01-1986,5.890625,5.984375,744800,5.984375,5.96875,2.2968337535858154
21-01-1986,5.875,5.953125,740000,6.0,5.921875,2.278795003890991
22-01-1986,5.8125,5.96875,1319200,6.0,5.8125,2.2367067337036133
23-01-1986,5.765625,5.78125,598400,5.875,5.828125,2.2427191734313965
24-01-1986,5.8125,5.8125,909600,5.953125,5.953125,2.2908201217651367
27-01-1986,5.890625,5.90625,435200,5.984375,5.96875,2.2968337535858154
28-01-1986,5.9375,6.0,480800,6.0,5.953125,2.2908201217651367
29-01-1986,5.953125,5.984375,848000,6.125,6.03125,2.320885181427002
30-01-1986,6.0,6.015625,881600,6.109375,6.0625,2.332908868789673
31-01-1986,6.078125,6.109375,1335200,6.171875,6.140625,2.362973928451538
03-02-1986,6.109375,6.109375,628000,6.21875,6.203125,2.387024164199829
04-02-1986,6.21875,6.25,1524000,6.28125,6.234375,2.399047613143921
05-02-1986,6.234375,6.25,1951200,6.328125,6.3125,2.4291117191314697
06-02-1986,6.328125,6.34375,1742400,6.453125,6.421875,2.4712016582489014
07-02-1986,6.359375,6.421875,972000,6.53125,6.53125,2.513288974761963
10-02-1986,6.546875,6.703125,1145600,6.734375,6.703125,2.5794272422790527
11-02-1986,6.640625,6.875,1729600,6.890625,6.875,2.667454957962036
12-02-1986,6.75,6.84375,1461600,6.90625,6.75,2.618955135345459
13-02-1986,6.6875,6.71875,1157600,6.875,6.875,2.667454957962036
14-02-1986,6.734375,6.90625,1000000,6.96875,6.96875,2.7038285732269287
18-02-1986,6.96875,7.0,1034400,7.15625,7.125,2.764451742172241
19-02-1986,7.125,7.15625,1052000,7.34375,7.171875,2.7826380729675293
20-02-1986,7.125,7.171875,2320800,7.234375,7.15625,2.7765772342681885
21-02-1986,7.140625,7.15625,1183200,7.3125,7.265625,2.819014072418213
24-02-1986,7.15625,7.21875,668800,7.3125,7.296875,2.831139326095581
25-02-1986,7.15625,7.3125,1738400,7.34375,7.21875,2.8008270263671875
26-02-1986,7.21875,7.25,732000,7.296875,7.28125,2.825075626373291
27-02-1986,7.25,7.3125,463200,7.375,7.328125,2.843264102935791
28-02-1986,7.46875,7.5,1215200,7.6875,7.6875,2.9826996326446533
03-03-1986,7.421875,7.6875,721600,7.6875,7.453125,2.8917641639709473
04-03-1986,7.34375,7.453125,1326400,7.6875,7.53125,2.9220755100250244
05-03-1986,7.46875,7.5625,562400,7.5625,7.5625,2.9341983795166016
06-03-1986,7.5625,7.59375,1779200,8.046875,7.984375,3.0978846549987793
07-03-1986,7.84375,7.984375,1203200,7.984375,7.90625,3.067573308944702
10-03-1986,7.71875,7.90625,428000,7.96875,7.71875,2.994823932647705
11-03-1986,7.703125,7.703125,742400,7.921875,7.890625,3.061509609222412
12-03-1986,7.875,7.875,964800,8.15625,8.03125,3.116069793701172
13-03-1986,7.921875,8.0625,636000,8.125,8.09375,3.1403212547302246
14-03-1986,7.53125,8.0625,1812800,8.125,8.0625,3.1281962394714355
17-03-1986,7.78125,7.96875,766400,8.0625,7.984375,3.0978846549987793
18-03-1986,7.8125,7.96875,484800,7.984375,7.953125,3.0857601165771484
19-03-1986,7.8125,7.921875,692000,7.96875,7.90625,3.067573308944702
20-03-1986,7.875,7.90625,1108000,8.0625,8.0625,3.1281962394714355
21-03-1986,8.0625,8.125,1337600,8.21875,8.15625,3.164571762084961
24-03-1986,8.125,8.21875,1558400,8.265625,8.203125,3.18275785446167
25-03-1986,7.9375,8.1875,685600,8.1875,8.109375,3.1463840007781982
26-03-1986,8.015625,8.109375,904000,8.109375,8.046875,3.122133255004883
27-03-1986,8.0,8.09375,678400,8.109375,8.015625,3.110008478164673
31-03-1986,8.03125,8.078125,582400,8.109375,8.078125,3.1342599391937256
01-04-1986,8.015625,8.109375,619200,8.109375,8.015625,3.110008478164673
02-04-1986,7.96875,8.03125,1211200,8.046875,8.046875,3.122133255004883
03-04-1986,7.9375,8.046875,392800,8.078125,7.96875,3.0918221473693848
04-04-1986,7.59375,7.9375,819200,8.09375,7.59375,2.946324110031128
07-04-1986,7.546875,7.59375,560800,7.65625,7.65625,2.9705750942230225
08-04-1986,7.640625,7.671875,503200,7.875,7.75,3.0069470405578613
09-04-1986,7.609375,7.8125,917600,7.890625,7.625,2.9584498405456543
10-04-1986,7.375,7.65625,1039200,7.65625,7.59375,2.946324110031128
11-04-1986,7.546875,7.578125,458400,7.65625,7.625,2.9584498405456543
14-04-1986,7.53125,7.65625,730400,7.671875,7.625,2.9584498405456543
15-04-1986,7.625,7.65625,269600,7.734375,7.640625,2.9645118713378906
16-04-1986,7.71875,7.71875,1074400,8.28125,8.25,3.200944423675537
17-04-1986,7.9375,8.1875,801600,8.234375,8.0,3.103947639465332
18-04-1986,7.640625,8.03125,1028000,8.046875,8.03125,3.116069793701172
21-04-1986,8.0,8.09375,858400,8.109375,8.078125,3.1342599391937256
22-04-1986,8.125,8.21875,1219200,8.28125,8.25,3.200944423675537
23-04-1986,8.1875,8.25,945600,8.28125,8.25,3.200944423675537
24-04-1986,8.1875,8.1875,652800,8.265625,8.203125,3.18275785446167
25-04-1986,8.15625,8.203125,555200,8.234375,8.234375,3.19488263130188
28-04-1986,8.15625,8.234375,561600,8.265625,8.234375,3.19488263130188
29-04-1986,8.015625,8.203125,452000,8.203125,8.09375,3.1403212547302246
30-04-1986,8.09375,8.171875,1053600,8.28125,8.125,3.152446746826172
01-05-1986,8.03125,8.09375,796000,8.25,8.234375,3.19488263130188
02-05-1986,8.125,8.203125,712800,8.265625,8.203125,3.18275785446167
05-05-1986,8.125,8.171875,431200,8.25,8.21875,3.1888201236724854
06-05-1986,8.09375,8.09375,180800,8.1875,8.09375,3.1634156703948975
07-05-1986,8.09375,8.140625,590400,8.25,8.234375,3.2183780670166016
08-05-1986,8.03125,8.28125,355200,8.28125,8.046875,3.1450934410095215
09-05-1986,7.921875,8.015625,398400,8.015625,7.921875,3.096238374710083
12-05-1986,7.796875,7.9375,1021600,7.953125,7.796875,3.0473833084106445
13-05-1986,7.65625,7.796875,651200,7.796875,7.703125,3.010740041732788
14-05-1986,7.625,7.71875,809600,7.734375,7.625,2.9802067279815674
15-05-1986,7.4375,7.640625,608000,7.640625,7.46875,2.9191362857818604
16-05-1986,7.3125,7.4375,1061600,7.5,7.5,2.931349992752075
19-05-1986,7.515625,7.53125,737600,7.625,7.609375,2.97409987449646
20-05-1986,7.5625,7.609375,799200,7.75,7.734375,3.0229544639587402
21-05-1986,7.640625,7.75,1017600,7.796875,7.75,3.0290615558624268
22-05-1986,7.734375,7.75,465600,7.90625,7.90625,3.0901315212249756
23-05-1986,7.890625,7.921875,533600,8.03125,8.015625,3.132880210876465
27-05-1986,7.953125,7.984375,221600,8.015625,7.984375,3.1206672191619873
28-05-1986,7.875,7.984375,617600,8.0,7.953125,3.1084535121917725
29-05-1986,7.8125,7.921875,1089600,7.9375,7.9375,3.1023452281951904
30-05-1986,7.828125,7.875,1028000,7.90625,7.890625,3.0840234756469727
02-06-1986,7.875,7.90625,1261600,7.953125,7.953125,3.1084535121917725
03-06-1986,7.90625,7.921875,451200,7.953125,7.953125,3.1084535121917725
04-06-1986,7.96875,7.984375,777600,8.109375,8.09375,3.1634156703948975
05-06-1986,8.015625,8.09375,804800,8.109375,8.109375,3.169522523880005
06-06-1986,7.890625,8.078125,664800,8.09375,7.921875,3.096238374710083
09-06-1986,7.578125,7.890625,507200,7.890625,7.625,2.9802067279815674
10-06-1986,7.59375,7.609375,776800,7.71875,7.65625,2.9924204349517822
11-06-1986,7.625,7.671875,693600,7.734375,7.71875,3.0168464183807373
12-06-1986,7.640625,7.6875,357600,7.859375,7.859375,3.071812391281128
13-06-1986,7.84375,7.84375,600000,8.03125,8.03125,3.1389853954315186
16-06-1986,7.9375,8.0,724000,8.0625,8.0625,3.1512012481689453
17-06-1986,7.859375,8.0625,438400,8.0625,7.96875,3.1145598888397217
18-06-1986,7.828125,7.96875,331200,7.96875,7.921875,3.096238374710083
19-06-1986,7.6875,7.921875,492000,7.9375,7.78125,3.0412745475769043
20-06-1986,7.765625,7.78125,617600,7.875,7.84375,3.065703868865967
23-06-1986,7.78125,7.875,881600,7.9375,7.90625,3.0901315212249756
24-06-1986,7.890625,7.9375,989600,8.109375,8.0625,3.1512012481689453
25-06-1986,8.078125,8.109375,1040000,8.171875,8.171875,3.1939499378204346
26-06-1986,8.21875,8.34375,1207200,8.6875,8.6875,3.3954803943634033
27-06-1986,8.53125,8.65625,572000,8.65625,8.59375,3.3588383197784424
30-06-1986,8.5,8.5625,396000,8.640625,8.515625,3.3283023834228516
01-07-1986,8.46875,8.5,1366400,8.546875,8.53125,3.3344106674194336
02-07-1986,8.4375,8.53125,1432800,8.53125,8.46875,3.3099820613861084
03-07-1986,8.3125,8.484375,1009600,8.484375,8.421875,3.2916624546051025
07-07-1986,8.15625,8.453125,603200,8.453125,8.15625,3.187842845916748
08-07-1986,7.765625,8.0,1141600,8.0,7.9375,3.1023452281951904
09-07-1986,7.828125,7.9375,952800,7.96875,7.921875,3.096238374710083
10-07-1986,7.703125,7.921875,696000,7.921875,7.84375,3.065703868865967
11-07-1986,7.78125,7.875,1339200,7.875,7.875,3.0779175758361816
14-07-1986,7.71875,7.84375,626400,7.84375,7.765625,3.0351691246032715
15-07-1986,7.5,7.71875,1178400,7.75,7.53125,2.943565845489502
16-07-1986,7.515625,7.625,808800,7.671875,7.515625,2.93745756149292
17-07-1986,7.5,7.5,1128000,7.671875,7.640625,2.9863128662109375
18-07-1986,7.65625,7.75,808800,7.90625,7.78125,3.0412745475769043
21-07-1986,7.65625,7.75,498400,7.75,7.71875,3.0168464183807373
22-07-1986,7.6875,7.6875,740000,7.875,7.875,3.0779175758361816
23-07-1986,7.8125,7.859375,1444000,7.984375,7.96875,3.1145598888397217
24-07-1986,7.9375,7.96875,552000,8.0625,8.0625,3.1512012481689453
25-07-1986,7.96875,8.078125,448000,8.09375,8.09375,3.1634156703948975
28-07-1986,7.8125,8.078125,580000,8.09375,7.8125,3.0534894466400146
29-07-1986,7.765625,7.828125,768800,7.828125,7.78125,3.0412745475769043
30-07-1986,7.65625,7.78125,514400,7.796875,7.703125,3.010740041732788
31-07-1986,7.65625,7.734375,704800,7.734375,7.703125,3.010740041732788
01-08-1986,7.59375,7.6875,1102400,7.6875,7.59375,2.967992067337036
04-08-1986,7.5,7.5625,620800,7.859375,7.859375,3.071812391281128
05-08-1986,7.71875,7.71875,760800,7.875,7.71875,3.040057897567749
06-08-1986,7.53125,7.625,532800,7.640625,7.5625,2.9785163402557373
07-08-1986,7.484375,7.59375,768800,7.625,7.5,2.953899383544922
08-08-1986,7.40625,7.546875,616800,7.546875,7.53125,2.966210126876831
11-08-1986,7.53125,7.5625,1471200,7.859375,7.859375,3.0954415798187256
12-08-1986,7.78125,7.828125,952000,7.984375,7.921875,3.120058059692383
13-08-1986,7.921875,7.921875,2211200,8.25,8.1875,3.224675178527832
14-08-1986,8.203125,8.234375,1181600,8.28125,8.234375,3.2431368827819824
15-08-1986,8.15625,8.3125,1148000,8.3125,8.265625,3.255445718765259
18-08-1986,8.125,8.25,1219200,8.25,8.21875,3.236982822418213
19-08-1986,8.171875,8.1875,1656000,8.203125,8.171875,3.2185211181640625
20-08-1986,8.1875,8.203125,1321600,8.359375,8.359375,3.2923693656921387
21-08-1986,8.34375,8.375,1935200,8.5,8.4375,3.323138475418091
22-08-1986,8.34375,8.46875,779200,8.46875,8.375,3.298520803451538
25-08-1986,8.28125,8.34375,586400,8.359375,8.296875,3.2677526473999023
26-08-1986,8.296875,8.296875,1156800,8.5,8.46875,3.335446357727051
27-08-1986,8.4375,8.453125,981600,8.53125,8.53125,3.360062837600708
28-08-1986,8.5,8.53125,1001600,8.671875,8.640625,3.4031407833099365
29-08-1986,8.59375,8.59375,3828000,8.796875,8.71875,3.433908462524414
02-09-1986,8.453125,8.71875,1000000,8.71875,8.46875,3.335446357727051
03-09-1986,8.375,8.46875,1630400,8.625,8.625,3.3969876766204834
04-09-1986,8.640625,8.65625,2874400,9.0,8.890625,3.5016019344329834
05-09-1986,8.625,8.875,1639200,8.921875,8.671875,3.4154458045959473
08-09-1986,8.515625,8.59375,1348000,8.78125,8.75,3.446218490600586
09-09-1986,8.625,8.78125,1900800,8.859375,8.65625,3.4092934131622314
10-09-1986,8.5625,8.65625,1460000,8.8125,8.8125,3.470832347869873
11-09-1986,8.4375,8.8125,2055200,8.8125,8.46875,3.335446357727051
12-09-1986,8.1875,8.484375,2328800,8.5,8.34375,3.28621506690979
15-09-1986,8.390625,8.46875,1860800,8.484375,8.4375,3.323138475418091
16-09-1986,8.375,8.4375,1300800,8.484375,8.453125,3.3292934894561768
17-09-1986,8.34375,8.453125,1265600,8.484375,8.34375,3.28621506690979
18-09-1986,8.3125,8.34375,861600,8.40625,8.359375,3.2923693656921387
19-09-1986,8.28125,8.359375,1069600,8.421875,8.421875,3.3169846534729004
22-09-1986,8.34375,8.390625,415200,8.4375,8.421875,3.3169846534729004
23-09-1986,8.421875,8.4375,1432800,8.546875,8.546875,3.3662149906158447
24-09-1986,8.390625,8.5,820800,8.5625,8.5625,3.3723697662353516
25-09-1986,8.3125,8.5625,1181600,8.5625,8.375,3.298520803451538
26-09-1986,8.25,8.34375,456000,8.359375,8.3125,3.2739057540893555
29-09-1986,7.9375,8.28125,1515200,8.28125,8.0,3.150826930999756
30-09-1986,7.96875,7.96875,930400,8.0625,8.015625,3.1569814682006836
01-10-1986,8.015625,8.046875,1239200,8.1875,8.125,3.2000579833984375
02-10-1986,8.109375,8.171875,648800,8.203125,8.109375,3.1939051151275635
03-10-1986,8.015625,8.078125,416000,8.1875,8.078125,3.181598424911499
06-10-1986,8.03125,8.046875,403200,8.15625,8.0625,3.175442695617676
07-10-1986,8.046875,8.078125,541600,8.140625,8.078125,3.181598424911499
08-10-1986,8.078125,8.109375,1105600,8.21875,8.1875,3.224675178527832
09-10-1986,8.21875,8.21875,1460800,8.28125,8.21875,3.236982822418213
10-10-1986,8.140625,8.203125,465600,8.203125,8.15625,3.212366819381714
13-10-1986,8.0625,8.140625,108000,8.171875,8.09375,3.1877527236938477
14-10-1986,8.125,8.125,656000,8.25,8.21875,3.236982822418213
15-10-1986,8.203125,8.46875,475200,8.484375,8.46875,3.335446357727051
16-10-1986,8.46875,8.5,1509600,8.59375,8.5625,3.3723697662353516
17-10-1986,8.5625,8.59375,647200,8.609375,8.609375,3.3908307552337646
20-10-1986,8.5,8.578125,1486400,8.578125,8.5,3.3477535247802734
21-10-1986,8.375,8.5,1067200,8.5,8.453125,3.3292934894561768
22-10-1986,8.453125,8.484375,874400,8.578125,8.5625,3.3723697662353516
23-10-1986,8.5625,8.59375,798400,8.671875,8.625,3.3969876766204834
24-10-1986,8.578125,8.65625,660000,8.6875,8.578125,3.378525972366333
27-10-1986,8.515625,8.59375,717600,8.609375,8.5625,3.3723697662353516
28-10-1986,8.5,8.59375,1252000,8.65625,8.609375,3.3908307552337646
29-10-1986,8.625,8.625,1340800,8.734375,8.734375,3.440063238143921
30-10-1986,8.65625,8.75,2224000,8.796875,8.703125,3.4277563095092773
31-10-1986,8.546875,8.734375,956000,8.734375,8.640625,3.4031407833099365
03-11-1986,8.625,8.65625,1692800,8.75,8.75,3.446218490600586
04-11-1986,8.640625,8.671875,1818400,8.703125,8.671875,3.4390296936035156
05-11-1986,8.65625,8.671875,1663200,8.84375,8.796875,3.4886016845703125
06-11-1986,8.71875,8.765625,863200,8.84375,8.8125,3.4947967529296875
07-11-1986,8.734375,8.78125,1085600,8.890625,8.84375,3.507190704345703
10-11-1986,8.6875,8.8125,815200,8.8125,8.734375,3.463815689086914
11-11-1986,8.65625,8.703125,1544000,8.796875,8.78125,3.4824047088623047
12-11-1986,8.625,8.78125,776000,8.796875,8.71875,3.457618236541748
13-11-1986,8.6875,8.734375,1657600,8.765625,8.6875,3.445227861404419
14-11-1986,8.71875,8.734375,1803200,8.9375,8.890625,3.5257813930511475
17-11-1986,8.75,8.828125,1086400,8.859375,8.75,3.4700119495391846
18-11-1986,8.578125,8.78125,1169600,8.796875,8.578125,3.4018495082855225
19-11-1986,8.578125,8.59375,869600,8.75,8.75,3.4700119495391846
20-11-1986,8.65625,8.78125,1061600,8.796875,8.734375,3.463815689086914
21-11-1986,8.703125,8.734375,2249600,8.828125,8.78125,3.4824047088623047
24-11-1986,8.75,8.78125,1480000,8.90625,8.859375,3.5133860111236572
25-11-1986,8.875,8.875,1718400,9.125,9.0625,3.5939409732818604
26-11-1986,9.046875,9.0625,897600,9.25,9.203125,3.6497092247009277
28-11-1986,9.171875,9.203125,1002400,9.28125,9.28125,3.680692672729492
01-12-1986,9.046875,9.28125,995200,9.28125,9.234375,3.662102460861206
02-12-1986,9.234375,9.3125,1941600,9.453125,9.40625,3.7302627563476562
03-12-1986,9.40625,9.40625,2039200,9.625,9.5625,3.7922277450561523
04-12-1986,9.46875,9.59375,2061600,9.703125,9.46875,3.7550485134124756
05-12-1986,9.21875,9.40625,1144800,9.578125,9.359375,3.7116732597351074
08-12-1986,9.21875,9.34375,944800,9.4375,9.359375,3.7116732597351074
09-12-1986,9.21875,9.4375,876000,9.53125,9.21875,3.655904769897461
10-12-1986,9.21875,9.21875,1076000,9.375,9.34375,3.705479621887207
11-12-1986,9.21875,9.34375,1772800,9.5,9.25,3.668299436569214
12-12-1986,9.109375,9.25,619200,9.28125,9.1875,3.6435139179229736
15-12-1986,9.0,9.15625,850400,9.15625,9.078125,3.60013747215271
16-12-1986,9.0625,9.1875,1204800,9.21875,9.21875,3.655904769897461
17-12-1986,9.1875,9.25,716800,9.28125,9.28125,3.680692672729492
18-12-1986,9.09375,9.25,1108000,9.40625,9.15625,3.6311206817626953
19-12-1986,9.125,9.1875,1775200,9.375,9.375,3.7178709506988525
22-12-1986,9.09375,9.25,1244800,9.28125,9.21875,3.655904769897461
23-12-1986,9.125,9.21875,1052800,9.21875,9.203125,3.6497092247009277
24-12-1986,9.15625,9.203125,1071200,9.203125,9.1875,3.6435139179229736
26-12-1986,9.171875,9.203125,221600,9.21875,9.171875,3.637314796447754
29-12-1986,9.125,9.171875,745600,9.21875,9.15625,3.6311206817626953
30-12-1986,9.03125,9.140625,908000,9.15625,9.03125,3.5815467834472656
31-12-1986,9.03125,9.046875,940800,9.15625,9.109375,3.6125311851501465
02-01-1987,9.046875,9.078125,824000,9.3125,9.3125,3.6930813789367676
05-01-1987,9.328125,9.328125,1616800,9.4375,9.421875,3.7364587783813477
06-01-1987,9.390625,9.453125,2948800,9.625,9.421875,3.7364587783813477
07-01-1987,9.34375,9.34375,1420000,9.5625,9.5625,3.7922277450561523
08-01-1987,9.5625,9.625,1454400,9.78125,9.75,3.866583824157715
09-01-1987,9.71875,9.78125,910400,9.921875,9.8125,3.891371726989746
12-01-1987,9.75,9.78125,1405600,10.1875,10.15625,4.027692794799805
13-01-1987,10.015625,10.15625,1028000,10.15625,10.03125,3.978119134902954
14-01-1987,9.890625,10.0,1489600,10.09375,10.078125,3.9967100620269775
15-01-1987,10.0625,10.09375,1710400,10.1875,10.125,4.0152997970581055
16-01-1987,10.125,10.15625,1640000,10.3125,10.15625,4.027692794799805
19-01-1987,9.9375,10.03125,1085600,10.15625,10.125,4.0152997970581055
20-01-1987,10.125,10.15625,1477600,10.46875,10.40625,4.126836776733398
21-01-1987,9.9375,10.40625,1445600,10.40625,10.0,3.965728998184204
22-01-1987,10.0625,10.0625,920800,10.359375,10.3125,4.089657783508301
23-01-1987,10.15625,10.375,2648800,10.875,10.40625,4.126836776733398
26-01-1987,10.1875,10.34375,965600,10.34375,10.25,4.064870357513428
27-01-1987,10.28125,10.28125,932800,10.5625,10.421875,4.133030891418457
28-01-1987,10.40625,10.4375,985600,10.6875,10.59375,4.201194763183594
29-01-1987,10.65625,10.71875,980000,10.75,10.734375,4.256962776184082
30-01-1987,10.5,10.765625,831200,10.90625,10.875,4.3127288818359375
02-02-1987,10.84375,10.921875,1322400,11.125,11.0625,4.387088775634766
03-02-1987,10.9375,11.078125,1951200,11.15625,11.03125,4.374691486358643
04-02-1987,10.9375,11.078125,899200,11.078125,11.0625,4.387088775634766
05-02-1987,10.875,11.0625,1313600,11.09375,10.90625,4.325124263763428
06-02-1987,10.890625,10.953125,667200,11.03125,10.96875,4.349906921386719
09-02-1987,10.78125,10.96875,776000,10.96875,10.875,4.3127288818359375
10-02-1987,10.3125,10.5,1310400,10.609375,10.5,4.190021991729736
11-02-1987,10.421875,10.5,499200,10.71875,10.71875,4.277311325073242
12-02-1987,10.5,10.71875,948800,10.84375,10.5625,4.214962005615234
13-02-1987,10.5625,10.625,797600,10.75,10.734375,4.28355073928833
17-02-1987,10.46875,10.5,1221600,10.6875,10.6875,4.264842510223389
18-02-1987,10.796875,11.046875,1248800,11.0625,10.90625,4.352137088775635
19-02-1987,10.890625,10.9375,987200,10.9375,10.90625,4.352137088775635
20-02-1987,10.78125,10.875,502400,10.90625,10.8125,4.314723968505859
23-02-1987,10.5,10.75,1544000,10.8125,10.640625,4.2461395263671875
24-02-1987,10.484375,10.578125,1500000,10.609375,10.578125,4.221199035644531
25-02-1987,10.46875,10.546875,1120800,10.578125,10.5,4.190021991729736
26-02-1987,10.46875,10.5,695200,10.59375,10.578125,4.221199035644531
27-02-1987,10.46875,10.546875,3137600,10.5625,10.53125,4.202490329742432
02-03-1987,10.46875,10.5,556800,10.59375,10.59375,4.2274346351623535
03-03-1987,10.5,10.5625,527200,10.625,10.625,4.239902496337891
04-03-1987,10.5625,10.65625,1098400,10.703125,10.59375,4.2274346351623535
05-03-1987,10.53125,10.59375,1231200,10.640625,10.5625,4.214962005615234
06-03-1987,10.59375,10.609375,1818400,10.6875,10.640625,4.2461395263671875
09-03-1987,10.625,10.71875,809600,10.984375,10.875,4.339665412902832
10-03-1987,10.828125,10.9375,589600,10.96875,10.90625,4.352137088775635
11-03-1987,10.890625,11.03125,720800,11.09375,10.921875,4.358371257781982
12-03-1987,10.90625,10.984375,492000,11.0,10.984375,4.383311748504639
13-03-1987,10.75,10.875,522400,11.25,10.875,4.339665412902832
